raw_emg1,derivative_emg1,normalized_emg1,raw_emg2,derivative_emg2,normalized_emg2,label
31911,0,0.33328,32936,0,0.45037,1
30759,-1152,0.16310,33480,544,0.51064,1
30359,-400,0.10400,34264,784,0.59750,1
29767,-592,0.01655,32824,-1440,0.43796,1
30519,752,0.12764,33096,272,0.46809,1
30055,-464,0.05909,32984,-112,0.45568,1
30455,400,0.11819,33688,704,0.53368,1
30695,240,0.15364,33784,96,0.54432,1
31207,512,0.22928,34760,976,0.65245,1
31415,208,0.26001,34008,-752,0.56913,1
31271,-144,0.23874,34040,32,0.57268,1
31447,176,0.26474,33608,-432,0.52482,1
31175,-272,0.22455,32039,-1569,0.35099,1
31943,768,0.33801,32039,0,0.35099,1
31671,-272,0.29783,31767,-272,0.32085,1
31383,-288,0.25528,32471,704,0.39885,1
31623,240,0.29074,32567,96,0.40948,1
31351,-272,0.25055,33064,497,0.46455,1
31703,352,0.30256,33512,448,0.51418,1
32151,448,0.36874,33528,16,0.51595,1
32423,272,0.40892,33320,-208,0.49291,1
32904,481,0.47998,33176,-144,0.47696,1
33288,384,0.53671,32519,-657,0.40417,1
33880,592,0.62417,32119,-400,0.35985,1
33480,-400,0.56508,30967,-1152,0.23222,1
33480,0,0.56508,30743,-224,0.20740,1
33896,416,0.62653,30263,-480,0.15422,1
34136,240,0.66199,33032,2769,0.46100,1
33672,-464,0.59344,35576,2544,0.74285,1
33736,64,0.60290,36824,1248,0.88112,1
34984,1248,0.78727,37897,1073,1.00000,1
35208,224,0.82036,36552,-1345,0.85099,1
35480,272,0.86054,34744,-1808,0.65068,1
34504,-976,0.71635,33576,-1168,0.52127,1
34376,-128,0.69744,32920,-656,0.44859,1
33304,-1072,0.53908,33624,704,0.52659,1
31863,-1441,0.32619,33240,-384,0.48405,1
31751,-112,0.30965,31079,-2161,0.24463,1
30567,-1184,0.13473,31559,480,0.29781,1
31271,704,0.23874,32183,624,0.36694,1
31911,640,0.33328,33368,1185,0.49823,1
32055,144,0.35456,33960,592,0.56382,1
31783,-272,0.31437,34392,432,0.61168,1
31591,-192,0.28601,35080,688,0.68790,1
31367,-224,0.25292,35080,0,0.68790,1
31607,240,0.28837,34696,-384,0.64536,1
31479,-128,0.26946,33496,-1200,0.51241,1
31559,80,0.28128,32167,-1329,0.36517,1
31623,64,0.29074,32952,785,0.45214,1
31191,-432,0.22692,34296,1344,0.60104,1
30887,-304,0.18201,32824,-1472,0.43796,1
30823,-64,0.17255,31383,-1441,0.27831,1
30471,-352,0.12055,29799,-1584,0.10281,1
31159,688,0.22219,29095,-704,0.02482,1
30583,-576,0.13710,29367,272,0.05495,1
32071,1488,0.35692,30759,1392,0.20917,1
32920,849,0.48235,30999,240,0.23576,1
33192,272,0.52253,32551,1552,0.40771,1
33880,688,0.62417,33432,881,0.50532,1
33592,-288,0.58162,33288,-144,0.48936,1
33384,-208,0.55089,34072,784,0.57622,1
33720,336,0.60053,34824,752,0.65954,1
33112,-608,0.51071,35144,320,0.69499,1
32936,-176,0.48471,35016,-128,0.68081,1
32567,-369,0.43020,34696,-320,0.64536,1
32631,64,0.43965,33992,-704,0.56736,1
34376,1745,0.69744,34232,240,0.59395,1
34328,-48,0.69035,34456,224,0.61877,1
34520,192,0.71872,33928,-528,0.56027,1
34280,-240,0.68326,33288,-640,0.48936,1
34024,-256,0.64544,33928,640,0.56027,1
33512,-512,0.56980,33896,-32,0.55673,1
32968,-544,0.48944,34184,288,0.58863,1
32840,-128,0.47053,33720,-464,0.53723,1
33048,208,0.50126,34648,928,0.64004,1
33192,144,0.52253,35400,752,0.72335,1
33384,192,0.55089,35880,480,0.77653,1
33032,-352,0.49889,35080,-800,0.68790,1
32263,-769,0.38529,34504,-576,0.62409,1
31895,-368,0.33092,33368,-1136,0.49823,1
31271,-624,0.23874,32647,-721,0.41835,1
31239,-32,0.23401,33960,1313,0.56382,1
31175,-64,0.22455,32679,-1281,0.42189,1
30935,-240,0.18910,32808,129,0.43618,1
30343,-592,0.10164,33848,1040,0.55141,1
30791,448,0.16782,34712,864,0.64713,1
30759,-32,0.16310,34296,-416,0.60104,1
30631,-128,0.14419,33288,-1008,0.48936,1
31431,800,0.26237,31527,-1761,0.29426,1
30695,-736,0.15364,32055,528,0.35276,1
31879,1184,0.32856,33208,1153,0.48050,1
31623,-256,0.29074,31047,-2161,0.24108,1
31191,-432,0.22692,30231,-816,0.15068,1
30759,-432,0.16310,30263,32,0.15422,1
31799,1040,0.31674,30119,-144,0.13827,1
32151,352,0.36874,30535,416,0.18436,1
32743,592,0.45620,31255,720,0.26413,1
32792,49,0.46344,31783,528,0.32262,1
32711,-81,0.45147,31575,-208,0.29958,1
32231,-480,0.38056,32055,480,0.35276,1
32199,-32,0.37583,32631,576,0.41657,1
32279,80,0.38765,32183,-448,0.36694,1
32359,80,0.39947,33736,1553,0.53900,1
32279,-80,0.38765,32920,-816,0.44859,1
32151,-128,0.36874,32311,-609,0.38112,1
32583,432,0.43256,31703,-608,0.31376,1
33352,769,0.54617,31479,-224,0.28894,1
33992,640,0.64072,31287,-192,0.26767,1
34504,512,0.71635,31079,-208,0.24463,1
34696,192,0.74472,30007,-1072,0.12586,1
34744,48,0.75181,29047,-960,0.01950,1
35400,656,0.84872,30423,1376,0.17195,1
35224,-176,0.82272,30903,480,0.22513,1
34568,-656,0.72581,30039,-864,0.12940,1
34808,240,0.76126,29943,-96,0.11877,1
34168,-640,0.66672,30695,752,0.20208,1
35688,1520,0.89127,33752,3057,0.54077,1
36424,736,1.00000,33800,48,0.54609,1
36344,-80,0.98818,33624,-176,0.52659,1
34936,-1408,0.78017,33720,96,0.53723,1
32535,-2401,0.42547,33096,-624,0.46809,1
31143,-1392,0.21983,33544,448,0.51773,1
31287,144,0.24110,33512,-32,0.51418,1
31159,-128,0.22219,33512,0,0.51418,1
31223,64,0.23164,34008,496,0.56913,1
30679,-544,0.15128,34008,0,0.56913,1
30439,-240,0.11582,33832,-176,0.54963,1
31271,832,0.23874,33672,-160,0.53191,1
31415,144,0.26001,33800,128,0.54609,1
32808,1393,0.46580,34232,432,0.59395,1
33224,416,0.52726,33800,-432,0.54609,1
33432,208,0.55798,33560,-240,0.51950,1
33608,176,0.58399,32792,-768,0.43441,1
33352,-256,0.54617,32007,-785,0.34744,1
33128,-224,0.51307,31607,-400,0.30312,1
32792,-336,0.46344,31175,-432,0.25526,1
32888,96,0.47762,31911,736,0.33680,1
33064,176,0.50362,32936,1025,0.45037,1
33000,-64,0.49416,33944,1008,0.56204,1
33320,320,0.54144,34328,384,0.60459,1
33592,272,0.58162,35080,752,0.68790,1
32824,-768,0.46816,34904,-176,0.66840,1
32952,128,0.48707,34392,-512,0.61168,1
32904,-48,0.47998,34984,592,0.67727,1
32968,64,0.48944,35464,480,0.73045,1
32583,-385,0.43256,35096,-368,0.68967,1
32055,-528,0.35456,34136,-960,0.58331,1
31943,-112,0.33801,33784,-352,0.54432,1
32119,176,0.36401,33320,-464,0.49291,1
32631,512,0.43965,33592,272,0.52304,1
33416,785,0.55562,33112,-480,0.46986,1
33528,112,0.57217,32792,-320,0.43441,1
32936,-592,0.48471,32792,0,0.43441,1
32631,-305,0.43965,33208,416,0.48050,1
32455,-176,0.41365,33256,48,0.48582,1
32856,401,0.47289,33064,-192,0.46455,1
32984,128,0.49180,32279,-785,0.37758,1
33000,16,0.49416,31047,-1232,0.24108,1
33448,448,0.56035,31511,464,0.29249,1
33576,128,0.57926,32968,1457,0.45391,1
33832,256,0.61708,33384,416,0.50000,1
33704,-128,0.59817,35240,1856,0.70563,1
33560,-144,0.57689,35112,-128,0.69145,1
32936,-624,0.48471,33592,-1520,0.52304,1
33736,800,0.60290,32792,-800,0.43441,1
34824,1088,0.76363,32199,-593,0.36871,1
34584,-240,0.72817,33224,1025,0.48227,1
34104,-480,0.65726,33160,-64,0.47518,1
32936,-1168,0.48471,32551,-609,0.40771,1
30855,-2081,0.17728,31799,-752,0.32440,1
29911,-944,0.03782,31671,-128,0.31021,1
29655,-256,0.00000,32391,720,0.38998,1
30087,432,0.06382,32471,80,0.39885,1
31639,1552,0.29310,32551,80,0.40771,1
31463,-176,0.26710,32792,241,0.43441,1
31847,384,0.32383,32776,-16,0.43264,1
31831,-16,0.32147,33656,880,0.53014,1
32471,640,0.41601,33848,192,0.55141,1
32199,-272,0.37583,33768,-80,0.54254,1
32599,400,0.43492,33528,-240,0.51595,1
33704,1105,0.59817,34072,544,0.57622,1
33128,-576,0.51307,32984,-1088,0.45568,1
33208,80,0.52489,32792,-192,0.43441,1
33256,48,0.53198,32407,-385,0.39176,1
33208,-48,0.52489,32599,192,0.41303,1
32727,-481,0.45383,32455,-144,0.39708,1
32455,-272,0.41365,32007,-448,0.34744,1
31975,-480,0.34274,32071,64,0.35453,1
31767,-208,0.31201,32279,208,0.37758,1
32135,368,0.36638,30871,-1408,0.22158,1
32119,-16,0.36401,32487,1616,0.40062,1
32711,592,0.45147,31015,-1472,0.23754,1
32776,65,0.46107,29895,-1120,0.11345,1
33720,944,0.60053,29959,64,0.12054,1
34104,384,0.65726,30263,304,0.15422,1
33144,-960,0.51544,29287,-976,0.04609,1
31927,-1217,0.33565,29111,-176,0.02659,1
31735,-192,0.30728,30887,1776,0.22335,1
31367,-368,0.25292,32295,1408,0.37935,1
31303,-64,0.24346,31287,-1008,0.26767,1
32087,784,0.35928,31463,176,0.28717,1
31703,-384,0.30256,31271,-192,0.26590,1
33064,1361,0.50362,31239,-32,0.26235,1
32519,-545,0.42311,31591,352,0.30135,1
32471,-48,0.41601,31303,-288,0.26944,1
32984,513,0.49180,31191,-112,0.25704,1
33192,208,0.52253,31479,288,0.28894,1
33304,112,0.53908,32792,1313,0.43441,1
32647,-657,0.44202,33560,768,0.51950,1
32423,-224,0.40892,33256,-304,0.48582,1
32535,112,0.42547,33032,-224,0.46100,1
32519,-16,0.42311,33704,672,0.53545,1
32776,257,0.46107,32327,-1377,0.38289,1
32776,0,0.46107,31959,-368,0.34212,1
33000,224,0.49416,32215,256,0.37049,1
32936,-64,0.48471,31751,-464,0.31908,1
33032,96,0.49889,31495,-256,0.29072,1
34136,1104,0.66199,32327,832,0.38289,1
33688,-448,0.59580,32455,128,0.39708,1
34200,512,0.67144,33432,977,0.50532,1
32968,-1232,0.48944,33576,144,0.52127,1
32247,-721,0.38292,34120,544,0.58154,1
31479,-768,0.26946,34760,640,0.65245,1
31159,-320,0.22219,34792,32,0.65599,1
31223,64,0.23164,35320,528,0.71449,1
31031,-192,0.20328,34968,-352,0.67549,1
30423,-608,0.11346,33800,-1168,0.54609,1
30807,384,0.17019,33288,-512,0.48936,1
31015,208,0.20092,33992,704,0.56736,1
31159,144,0.22219,34648,656,0.64004,1
31335,176,0.24819,35000,352,0.67904,1
31767,432,0.31201,35352,352,0.71804,1
32231,464,0.38056,35384,32,0.72158,1
32840,609,0.47053,36184,800,0.81021,1
33848,1008,0.61944,36248,64,0.81731,1
34408,560,0.70217,36184,-64,0.81021,1
33512,-896,0.56980,35272,-912,0.70917,1
33560,48,0.57689,34440,-832,0.61700,1
32551,-1009,0.42783,34232,-208,0.59395,1
32263,-288,0.38529,34536,304,0.62763,1
31959,-304,0.34038,35432,896,0.72690,1
31927,-32,0.33565,35768,336,0.76413,1
31799,-128,0.31674,35736,-32,0.76058,1
31639,-160,0.29310,35160,-576,0.69676,1
31847,208,0.32383,34024,-1136,0.57091,1
31847,0,0.32383,32776,-1248,0.43264,1
32183,336,0.37347,33400,624,0.50177,1
32840,657,0.47053,34568,1168,0.63118,1
32375,-465,0.40183,33912,-656,0.55850,1
31991,-384,0.34510,33928,16,0.56027,1
31831,-160,0.32147,34776,848,0.65422,1
32247,416,0.38292,35336,560,0.71626,1
32023,-224,0.34983,35736,400,0.76058,1
31479,-544,0.26946,35672,-64,0.75349,1
31415,-64,0.26001,35320,-352,0.71449,1
31335,-80,0.24819,33992,-1328,0.56736,1
31175,-160,0.22455,33384,-608,0.50000,1
31559,384,0.28128,33704,320,0.53545,1
31127,-432,0.21746,33448,-256,0.50709,1
31655,528,0.29546,33848,400,0.55141,1
31623,-32,0.29074,34232,384,0.59395,1
31895,272,0.33092,34568,336,0.63118,1
31511,-384,0.27419,34760,192,0.65245,1
32007,496,0.34747,35160,400,0.69676,1
32247,240,0.38292,35368,208,0.71981,1
31511,-736,0.27419,35208,-160,0.70208,1
32151,640,0.36874,34472,-736,0.62054,1
31815,-336,0.31910,33544,-928,0.51773,1
31751,-64,0.30965,32984,-560,0.45568,1
32215,464,0.37819,32519,-465,0.40417,1
32391,176,0.40420,31703,-816,0.31376,1
32183,-208,0.37347,31543,-160,0.29603,1
32231,48,0.38056,32503,960,0.40239,1
32343,112,0.39710,32407,-96,0.39176,1
32215,-128,0.37819,32087,-320,0.35630,1
32023,-192,0.34983,32599,512,0.41303,1
32727,704,0.45383,33832,1233,0.54963,1
33448,721,0.56035,33864,32,0.55318,1
33592,144,0.58162,33720,-144,0.53723,1
33288,-304,0.53671,32968,-752,0.45391,1
33128,-160,0.51307,32824,-144,0.43796,1
33544,416,0.57453,33272,448,0.48759,1
33336,-208,0.54380,32840,-432,0.43973,1
34424,1088,0.70454,33416,576,0.50355,1
33848,-576,0.61944,33352,-64,0.49645,1
33496,-352,0.56744,32872,-480,0.44327,1
33448,-48,0.56035,32359,-513,0.38644,1
33384,-64,0.55089,31767,-592,0.32085,1
33160,-224,0.51780,30999,-768,0.23576,1
33336,176,0.54380,29751,-1248,0.09750,1
34104,768,0.65726,30567,816,0.18790,1
34344,240,0.69272,32039,1472,0.35099,1
33880,-464,0.62417,32087,48,0.35630,1
33096,-784,0.50835,32023,-64,0.34921,1
32631,-465,0.43965,32567,544,0.40948,1
32407,-224,0.40656,32551,-16,0.40771,1
32375,-32,0.40183,32631,80,0.41657,1
32119,-256,0.36401,32503,-128,0.40239,1
32231,112,0.38056,32183,-320,0.36694,1
31271,-960,0.23874,31783,-400,0.32262,1
31975,704,0.34274,32423,640,0.39353,1
32343,368,0.39710,33208,785,0.48050,1
31943,-400,0.33801,33160,-48,0.47518,1
32824,881,0.46816,32567,-593,0.40948,1
33288,464,0.53671,33624,1057,0.52659,1
33192,-96,0.52253,33112,-512,0.46986,1
32888,-304,0.47762,33496,384,0.51241,1
32615,-273,0.43729,33352,-144,0.49645,1
32455,-160,0.41365,32679,-673,0.42189,1
32904,449,0.47998,33160,481,0.47518,1
32920,16,0.48235,33368,208,0.49823,1
32599,-321,0.43492,33304,-64,0.49114,1
32199,-400,0.37583,33064,-240,0.46455,1
32647,448,0.44202,33960,896,0.56382,1
32327,-320,0.39474,34200,240,0.59041,1
31687,-640,0.30019,34120,-80,0.58154,1
31607,-80,0.28837,33896,-224,0.55673,1
31575,-32,0.28365,34424,528,0.61522,1
31447,-128,0.26474,34984,560,0.67727,1
32343,896,0.39710,34984,0,0.67727,1
32327,-16,0.39474,34424,-560,0.61522,1
34136,1809,0.66199,34408,-16,0.61345,1
33992,-144,0.64072,34696,288,0.64536,1
34680,688,0.74235,34856,160,0.66308,1
34488,-192,0.71399,35736,880,0.76058,1
33688,-800,0.59580,36152,416,0.80667,1
32487,-1201,0.41838,35624,-528,0.74817,1
31767,-720,0.31201,35304,-320,0.71272,1
31671,-96,0.29783,34376,-928,0.60990,1
31063,-608,0.20801,33048,-1328,0.46277,1
31191,128,0.22692,33384,336,0.50000,1
31511,320,0.27419,33672,288,0.53191,1
31511,0,0.27419,33688,16,0.53368,1
32055,544,0.35456,34616,928,0.63649,1
32359,304,0.39947,35864,1248,0.77476,1
32711,352,0.45147,35816,-48,0.76944,1
33000,289,0.49416,34984,-832,0.67727,1
33080,80,0.50598,34344,-640,0.60636,1
33624,544,0.58635,34072,-272,0.57622,1
33560,-64,0.57689,32936,-1136,0.45037,1
33384,-176,0.55089,33736,800,0.53900,1
33496,112,0.56744,34824,1088,0.65954,1
33352,-144,0.54617,34856,32,0.66308,1
33320,-32,0.54144,34984,128,0.67727,1
33832,512,0.61708,34040,-944,0.57268,1
33112,-720,0.51071,32904,-1136,0.44682,1
33064,-48,0.50362,31783,-1121,0.32262,1
32439,-625,0.41129,32087,304,0.35630,1
32647,208,0.44202,32343,256,0.38467,1
32647,0,0.44202,32727,384,0.42721,1
32343,-304,0.39710,32679,-48,0.42189,1
32551,208,0.42783,32792,113,0.43441,1
32711,160,0.45147,32872,80,0.44327,1
32888,177,0.47762,32199,-673,0.36871,1
32872,-16,0.47525,31671,-528,0.31021,1
32792,-80,0.46344,31063,-608,0.24285,1
32439,-353,0.41129,31063,0,0.24285,1
32487,48,0.41838,31175,112,0.25526,1
32503,16,0.42074,31655,480,0.30844,1
32327,-176,0.39474,32471,816,0.39885,1
32407,80,0.40656,34136,1665,0.58331,1
32711,304,0.45147,34904,768,0.66840,1
33224,513,0.52726,34760,-144,0.65245,1
33400,176,0.55326,33720,-1040,0.53723,1
33544,144,0.57453,33592,-128,0.52304,1
33464,-80,0.56271,33944,352,0.56204,1
33032,-432,0.49889,33096,-848,0.46809,1
32535,-497,0.42547,32167,-929,0.36517,1
32487,-48,0.41838,31799,-368,0.32440,1
33096,609,0.50835,33288,1489,0.48936,1
33240,144,0.52962,32968,-320,0.45391,1
34408,1168,0.70217,32567,-401,0.40948,1
34296,-112,0.68563,33560,993,0.51950,1
35192,896,0.81799,33208,-352,0.48050,1
36024,832,0.94091,31895,-1313,0.33503,1
34984,-1040,0.78727,30999,-896,0.23576,1
34264,-720,0.68090,30679,-320,0.20031,1
34344,80,0.69272,30567,-112,0.18790,1
33048,-1296,0.50126,30295,-272,0.15777,1
32599,-449,0.43492,30903,608,0.22513,1
32471,-128,0.41601,31719,816,0.31553,1
31767,-704,0.31201,32135,416,0.36162,1
31495,-272,0.27183,31639,-496,0.30667,1
31223,-272,0.23164,31911,272,0.33680,1
31623,400,0.29074,31399,-512,0.28008,1
31815,192,0.31910,31527,128,0.29426,1
31319,-496,0.24583,31383,-144,0.27831,1
31319,0,0.24583,31463,80,0.28717,1
31255,-64,0.23637,31959,496,0.34212,1
31415,160,0.26001,32391,432,0.38998,1
31847,432,0.32383,32407,16,0.39176,1
31799,-48,0.31674,32952,545,0.45214,1
32135,336,0.36638,33272,320,0.48759,1
32023,-112,0.34983,33448,176,0.50709,1
31927,-96,0.33565,33608,160,0.52482,1
31255,-672,0.23637,33368,-240,0.49823,1
30279,-976,0.09218,33560,192,0.51950,1
29975,-304,0.04727,33912,352,0.55850,1
30727,752,0.15837,35016,1104,0.68081,1
31703,976,0.30256,34504,-512,0.62409,1
32727,1024,0.45383,34920,416,0.67018,1
33688,961,0.59580,34168,-752,0.58686,1
33928,240,0.63126,34216,48,0.59218,1
32904,-1024,0.47998,34536,320,0.62763,1
33160,256,0.51780,34504,-32,0.62409,1
32487,-673,0.41838,34136,-368,0.58331,1
32087,-400,0.35928,33288,-848,0.48936,1
32087,0,0.35928,33096,-192,0.46809,1
31447,-640,0.26474,33528,432,0.51595,1
31031,-416,0.20328,33768,240,0.54254,1
31383,352,0.25528,34248,480,0.59572,1
32007,624,0.34747,35544,1296,0.73931,1
31831,-176,0.32147,35016,-528,0.68081,1
32103,272,0.36165,34152,-864,0.58509,1
32151,48,0.36874,33368,-784,0.49823,1
32391,240,0.40420,32695,-673,0.42366,1
33176,785,0.52017,32247,-448,0.37403,1
33272,96,0.53435,31319,-928,0.27122,1
33896,624,0.62653,31927,608,0.33858,1
33752,-144,0.60526,31399,-528,0.28008,1
33992,240,0.64072,31095,-304,0.24640,1
33160,-832,0.51780,30263,-832,0.15422,1
33144,-16,0.51544,30599,336,0.19145,1
33352,208,0.54617,30583,-16,0.18967,1
33336,-16,0.54380,31335,752,0.27299,1
33608,272,0.58399,31783,448,0.32262,1
33080,-528,0.50598,32711,928,0.42544,1
31863,-1217,0.32619,32663,-48,0.42012,1
31319,-544,0.24583,32968,305,0.45391,1
31399,80,0.25765,33800,832,0.54609,1
31303,-96,0.24346,33080,-720,0.46632,1
31911,608,0.33328,34136,1056,0.58331,1
32215,304,0.37819,35368,1232,0.71981,1
32792,577,0.46344,35224,-144,0.70386,1
32952,160,0.48707,34984,-240,0.67727,1
33304,352,0.53908,34072,-912,0.57622,1
33352,48,0.54617,33048,-1024,0.46277,1
33368,16,0.54853,32599,-449,0.41303,1
33304,-64,0.53908,32391,-208,0.38998,1
33592,288,0.58162,32359,-32,0.38644,1
33080,-512,0.50598,31207,-1152,0.25881,1
32711,-369,0.45147,30423,-784,0.17195,1
32968,257,0.48944,30151,-272,0.14181,1
33640,672,0.58871,29799,-352,0.10281,1
32872,-768,0.47525,30679,880,0.20031,1
32359,-513,0.39947,31127,448,0.24994,1
32952,593,0.48707,31991,864,0.34567,1
33048,96,0.50126,32535,544,0.40594,1
32824,-224,0.46816,32647,112,0.41835,1
32567,-257,0.43020,32711,64,0.42544,1
32519,-48,0.42311,33112,401,0.46986,1
32631,112,0.43965,33640,528,0.52836,1
32599,-32,0.43492,34696,1056,0.64536,1
32904,305,0.47998,35048,352,0.68436,1
33608,704,0.58399,35000,-48,0.67904,1
34072,464,0.65253,35096,96,0.68967,1
34984,912,0.78727,34712,-384,0.64713,1
34248,-736,0.67853,34280,-432,0.59927,1
33736,-512,0.60290,33304,-976,0.49114,1
33528,-208,0.57217,32792,-512,0.43441,1
32808,-720,0.46580,31703,-1089,0.31376,1
33624,816,0.58635,31991,288,0.34567,1
33624,0,0.58635,30871,-1120,0.22158,1
33640,16,0.58871,30055,-816,0.13118,1
34632,992,0.73526,29239,-816,0.04077,1
32776,-1856,0.46107,29591,352,0.07977,1
32583,-193,0.43256,29319,-272,0.04963,1
31895,-688,0.33092,28871,-448,0.00000,1
31815,-80,0.31910,30151,1280,0.14181,1
31719,-96,0.30492,30855,704,0.21981,1
31655,-64,0.29546,31223,368,0.26058,1
31863,208,0.32619,31655,432,0.30844,1
32167,304,0.37110,32135,480,0.36162,1
32471,304,0.41601,32343,208,0.38467,1
32776,305,0.46107,32840,497,0.43973,1
33144,368,0.51544,33288,448,0.48936,1
33720,576,0.60053,34328,1040,0.60459,1
34104,384,0.65726,35272,944,0.70917,1
34024,-80,0.64544,34776,-496,0.65422,1
33704,-320,0.59817,34664,-112,0.64181,1
33272,-432,0.53435,34600,-64,0.63472,1
32583,-689,0.43256,34344,-256,0.60636,1
31271,-1312,0.23874,33640,-704,0.52836,1
30615,-656,0.14182,33144,-496,0.47341,1
30855,240,0.17728,33688,544,0.53368,1
31543,688,0.27892,34040,352,0.57268,1
32215,672,0.37819,33752,-288,0.54077,1
32535,320,0.42547,34264,512,0.59750,1
31975,-560,0.34274,33384,-880,0.50000,1
31191,-784,0.22692,32519,-865,0.40417,1
30535,-656,0.13000,32199,-320,0.36871,1
30551,16,0.13237,31895,-304,0.33503,1
30743,192,0.16073,32311,416,0.38112,1
30823,80,0.17255,32599,288,0.41303,1
31111,288,0.21510,32087,-512,0.35630,1
31639,528,0.29310,32007,-80,0.34744,1
31735,96,0.30728,32727,720,0.42721,1
32263,528,0.38529,32519,-208,0.40417,1
32151,-112,0.36874,32583,64,0.41126,1
31847,-304,0.32383,33160,577,0.47518,1
29719,0,0.32995,30743,0,0.28656,0
28614,-1105,0.24233,30743,0,0.28656,0
28294,-320,0.21695,30023,-720,0.24808,0
28823,529,0.25890,31591,1568,0.33189,0
29319,496,0.29823,33096,1505,0.41234,0
28919,-400,0.26651,34808,1712,0.50385,0
29207,288,0.28935,36488,1680,0.59365,0
29063,-144,0.27793,37385,897,0.64160,0
29143,80,0.28428,37273,-112,0.63561,0
31031,1888,0.43399,38137,864,0.68179,0
32968,1937,0.58758,38089,-48,0.67923,0
33800,832,0.65356,38649,560,0.70916,0
33416,-384,0.62311,42074,3425,0.89224,0
32375,-1041,0.54056,44090,2016,1.00000,0
31431,-944,0.46570,42970,-1120,0.94013,0
30663,-768,0.40481,39961,-3009,0.77929,0
29943,-720,0.34771,37241,-2720,0.63390,0
29735,-208,0.33122,33976,-3265,0.45938,0
31463,1728,0.46824,32439,-1537,0.37722,0
32311,848,0.53548,31159,-1280,0.30880,0
29943,-2368,0.34771,28743,-2416,0.17966,0
27174,-2769,0.12814,27990,-753,0.13941,0
26278,-896,0.05709,28230,240,0.15223,0
25558,-720,0.00000,28486,256,0.16592,0
26230,672,0.05329,27942,-544,0.13684,0
26998,768,0.11419,28086,144,0.14454,0
27222,224,0.13195,28294,208,0.15566,0
27350,128,0.14210,27558,-736,0.11631,0
26918,-432,0.10784,26886,-672,0.08039,0
26070,-848,0.04060,26934,48,0.08296,0
27094,1024,0.12180,31431,4497,0.32334,0
29079,1985,0.27920,35752,4321,0.55431,0
30663,1584,0.40481,38249,2497,0.68778,0
31463,800,0.46824,39497,1248,0.75449,0
32391,928,0.54183,39913,416,0.77673,0
31527,-864,0.47332,40489,576,0.80752,0
30135,-1392,0.36294,39017,-1472,0.72883,0
29799,-336,0.33629,37081,-1936,0.62535,0
31511,1712,0.47205,37369,288,0.64074,0
32327,816,0.53675,34632,-2737,0.49444,0
35160,2833,0.76140,31223,-3409,0.31222,0
35656,496,0.80073,27622,-3601,0.11973,0
34920,-736,0.74237,25382,-2240,0.00000,0
34376,-544,0.69923,25382,0,0.00000,0
33928,-448,0.66371,26262,880,0.04704,0
33528,-400,0.63199,27494,1232,0.11289,0
32103,-1425,0.51899,31495,4001,0.32676,0
30759,-1344,0.41242,36264,4769,0.58168,0
29623,-1136,0.32234,38601,2337,0.70660,0
29127,-496,0.28301,39129,528,0.73482,0
29671,544,0.32614,40137,1008,0.78870,0
30247,576,0.37182,39705,-432,0.76561,0
30343,96,0.37943,37801,-1904,0.66383,0
30103,-240,0.36040,36953,-848,0.61851,0
30311,208,0.37689,37449,496,0.64502,0
30423,112,0.38577,37305,-144,0.63732,0
30471,48,0.38958,36472,-833,0.59279,0
30279,-192,0.37436,35064,-1408,0.51753,0
30647,368,0.40354,34280,-784,0.47563,0
31319,672,0.45682,34488,208,0.48674,0
33096,1777,0.59773,34184,-304,0.47049,0
33528,432,0.63199,32872,-1312,0.40036,0
32952,-576,0.58631,31543,-1329,0.32932,0
33736,784,0.64848,27798,-3745,0.12914,0
33496,-240,0.62945,26454,-1344,0.05730,0
33080,-416,0.59646,27446,992,0.11033,0
30087,-2993,0.35913,29719,2273,0.23183,0
27270,-2817,0.13575,31335,1616,0.31821,0
27542,272,0.15732,32151,816,0.36182,0
28438,896,0.22837,32824,673,0.39780,0
29463,1025,0.30965,33752,928,0.44740,0
30247,784,0.37182,34856,1104,0.50641,0
29831,-416,0.33883,36008,1152,0.56799,0
29767,-64,0.33376,37289,1281,0.63647,0
29431,-336,0.30711,35784,-1505,0.55602,0
30503,1072,0.39212,35256,-528,0.52780,0
32071,1568,0.51645,34712,-544,0.49872,0
33144,1073,0.60154,34712,0,0.49872,0
33048,-96,0.59393,34360,-352,0.47990,0
31927,-1121,0.50504,32167,-2193,0.36268,0
30583,-1344,0.39846,31479,-688,0.32590,0
30135,-448,0.36294,32343,864,0.37209,0
30935,800,0.42637,33656,1313,0.44227,0
32792,1857,0.57363,33624,-32,0.44056,0
34072,1280,0.67512,31815,-1809,0.34386,0
35000,928,0.74871,29047,-2768,0.19591,0
36168,1168,0.84133,28887,-160,0.18735,0
35992,-176,0.82737,29127,240,0.20018,0
33992,-2000,0.66878,30167,1040,0.25577,0
30791,-3201,0.41496,31031,864,0.30196,0
30599,-192,0.39973,32039,1008,0.35584,0
31143,544,0.44287,32727,688,0.39261,0
31303,160,0.45555,32247,-480,0.36696,0
31735,432,0.48981,31943,-304,0.35071,0
31831,96,0.49742,32471,528,0.37893,0
31239,-592,0.45048,32423,-48,0.37636,0
30327,-912,0.37816,32327,-96,0.37123,0
30103,-224,0.36040,34040,1713,0.46280,0
30503,400,0.39212,36008,1968,0.56799,0
30471,-32,0.38958,36408,400,0.58937,0
30199,-272,0.36801,38265,1857,0.68864,0
29911,-288,0.34517,39737,1472,0.76732,0
29863,-48,0.34137,38697,-1040,0.71173,0
31319,1456,0.45682,36937,-1760,0.61765,0
32679,1360,0.56467,37033,96,0.62278,0
32391,-288,0.54183,36664,-369,0.60306,0
32663,272,0.56340,35480,-1184,0.53977,0
33976,1313,0.66751,35608,128,0.54661,0
34408,432,0.70177,36040,432,0.56970,0
33704,-704,0.64594,36504,464,0.59451,0
32311,-1393,0.53548,36921,417,0.61679,0
30551,-1760,0.39592,37865,944,0.66725,0
30167,-384,0.36547,36488,-1377,0.59365,0
30663,496,0.40481,34104,-2384,0.46622,0
31415,752,0.46444,32984,-1120,0.40635,0
29895,-1520,0.34391,32167,-817,0.36268,0
28198,-1697,0.20934,32279,112,0.36867,0
27510,-688,0.15479,32936,657,0.40378,0
27158,-352,0.12687,33240,304,0.42003,0
28230,1072,0.21188,34424,1184,0.48332,0
29799,1569,0.33629,34504,80,0.48760,0
31079,1280,0.43779,34520,16,0.48845,0
31799,720,0.49489,35464,944,0.53891,0
32151,352,0.52280,36056,592,0.57056,0
33176,1025,0.60408,34824,-1232,0.50470,0
34392,1216,0.70050,34440,-384,0.48418,0
34488,96,0.70811,34744,304,0.50043,0
33816,-672,0.65483,34184,-560,0.47049,0
33176,-640,0.60408,34104,-80,0.46622,0
32711,-465,0.56720,34408,304,0.48247,0
31655,-1056,0.48347,34760,352,0.50128,0
33096,1441,0.59773,35336,576,0.53207,0
34120,1024,0.67893,36152,816,0.57569,0
35832,1712,0.81469,36040,-112,0.56970,0
37369,1537,0.93656,34008,-2032,0.46109,0
38105,736,0.99493,32343,-1665,0.37209,0
37321,-784,0.93276,31287,-1056,0.31564,0
35592,-1729,0.79565,31031,-256,0.30196,0
33480,-2112,0.62818,30487,-544,0.27288,0
31831,-1649,0.49742,29431,-1056,0.21643,0
30359,-1472,0.38070,28566,-865,0.17019,0
29799,-560,0.33629,29319,753,0.21044,0
29719,-80,0.32995,31015,1696,0.30110,0
29991,272,0.35152,32135,1120,0.36097,0
30103,112,0.36040,32215,80,0.36524,0
29959,-144,0.34898,33944,1729,0.45767,0
29127,-832,0.28301,35080,1136,0.51839,0
29783,656,0.33502,36504,1424,0.59451,0
30423,640,0.38577,35864,-640,0.56030,0
30919,496,0.42511,36024,160,0.56885,0
32007,1088,0.51138,37801,1777,0.66383,0
33768,1761,0.65102,38313,512,0.69120,0
34440,672,0.70431,36408,-1905,0.58937,0
34152,-288,0.68147,35944,-464,0.56457,0
34312,160,0.69416,35048,-896,0.51668,0
33944,-368,0.66498,35960,912,0.56543,0
34200,256,0.68527,36056,96,0.57056,0
35064,864,0.75379,34488,-1568,0.48674,0
33016,-2048,0.59139,34648,160,0.49530,0
31031,-1985,0.43399,36552,1904,0.59707,0
31511,480,0.47205,37321,769,0.63818,0
31863,352,0.49996,36616,-705,0.60049,0
31463,-400,0.46824,34744,-1872,0.50043,0
32327,864,0.53675,33032,-1712,0.40892,0
32311,-16,0.53548,31671,-1361,0.33617,0
32263,-48,0.53168,31271,-400,0.31479,0
31895,-368,0.50250,31383,112,0.32077,0
31639,-256,0.48220,31911,528,0.34900,0
31383,-256,0.46190,31927,16,0.34985,0
33592,2209,0.63706,31543,-384,0.32932,0
35192,1600,0.76394,31639,96,0.33446,0
36744,1552,0.88700,31719,80,0.33873,0
37513,769,0.94798,31463,-256,0.32505,0
36905,-608,0.89977,30471,-992,0.27202,0
36969,64,0.90485,30839,368,0.29169,0
37913,944,0.97970,31767,928,0.34130,0
35928,-1985,0.82230,34136,2369,0.46793,0
33192,-2736,0.60534,35208,1072,0.52523,0
32071,-1121,0.51645,35976,768,0.56628,0
33016,945,0.59139,37641,1665,0.65528,0
34376,1360,0.69923,37929,288,0.67068,0
35288,912,0.77155,35880,-2049,0.56115,0
35304,16,0.77282,34024,-1856,0.46194,0
34312,-992,0.69416,34488,464,0.48674,0
34488,176,0.70811,33752,-736,0.44740,0
34088,-400,0.67639,32215,-1537,0.36524,0
33368,-720,0.61930,31159,-1056,0.30880,0
33000,-368,0.59012,31671,512,0.33617,0
32551,-449,0.55452,32167,496,0.36268,0
32519,-32,0.55198,33416,1249,0.42944,0
32679,160,0.56467,34376,960,0.48076,0
32567,-112,0.55578,34920,544,0.50984,0
31751,-816,0.49108,34296,-624,0.47648,0
31543,-208,0.47459,33544,-752,0.43628,0
31623,80,0.48093,32711,-833,0.39176,0
31735,112,0.48981,32647,-64,0.38834,0
31063,-672,0.43652,30503,-2144,0.27373,0
30551,-512,0.39592,31047,544,0.30281,0
30727,176,0.40988,31799,752,0.34301,0
30231,-496,0.37055,33272,1473,0.42174,0
29335,-896,0.29950,33448,176,0.43115,0
29479,144,0.31092,35000,1552,0.51411,0
30903,1424,0.42384,34504,-496,0.48760,0
31735,832,0.48981,34920,416,0.50984,0
31415,-320,0.46444,35288,368,0.52951,0
31735,320,0.48981,35192,-96,0.52437,0
32231,496,0.52914,35080,-112,0.51839,0
32487,256,0.54944,33432,-1648,0.43030,0
33240,753,0.60915,32311,-1121,0.37038,0
32856,-384,0.57870,33624,1313,0.44056,0
32872,16,0.57997,34344,720,0.47905,0
33544,672,0.63326,35272,928,0.52865,0
34008,464,0.67005,35000,-272,0.51411,0
33896,-112,0.66117,33672,-1328,0.44313,0
33752,-144,0.64975,32343,-1329,0.37209,0
34344,592,0.69669,31415,-928,0.32248,0
34392,48,0.70050,31447,32,0.32419,0
34552,160,0.71319,31703,256,0.33788,0
34200,-352,0.68527,31655,-48,0.33531,0
33656,-544,0.64214,32968,1313,0.40549,0
33128,-528,0.60027,32840,-128,0.39865,0
32311,-817,0.53548,33464,624,0.43201,0
31511,-800,0.47205,34216,752,0.47220,0
31863,352,0.49996,34856,640,0.50641,0
32023,160,0.51265,35592,736,0.54576,0
32311,288,0.53548,36440,848,0.59108,0
33000,689,0.59012,36040,-400,0.56970,0
33832,832,0.65609,35624,-416,0.54747,0
33992,160,0.66878,35480,-144,0.53977,0
35080,1088,0.75506,34792,-688,0.50299,0
36088,1008,0.83499,34120,-672,0.46707,0
37481,1393,0.94544,33704,-416,0.44484,0
38169,688,1.00000,32327,-1377,0.37123,0
38153,-16,0.99873,33896,1569,0.45510,0
36536,-1617,0.87051,34440,544,0.48418,0
35128,-1408,0.75886,33496,-944,0.43372,0
34088,-1040,0.67639,33608,112,0.43970,0
33640,-448,0.64087,33624,16,0.44056,0
33288,-352,0.61296,33064,-560,0.41063,0
32311,-977,0.53548,33576,512,0.43799,0
31959,-352,0.50757,33304,-272,0.42346,0
31927,-32,0.50504,33080,-224,0.41148,0
31799,-128,0.49489,32087,-993,0.35840,0
32199,400,0.52660,32359,272,0.37294,0
32792,593,0.57363,32727,368,0.39261,0
33496,704,0.62945,32231,-496,0.36610,0
32551,-945,0.55452,31591,-640,0.33189,0
33000,449,0.59012,31095,-496,0.30538,0
33784,784,0.65229,31367,272,0.31992,0
34504,720,0.70938,31255,-112,0.31393,0
33768,-736,0.65102,31191,-64,0.31051,0
34040,272,0.67259,32007,816,0.35413,0
33848,-192,0.65736,32840,833,0.39865,0
32968,-880,0.58758,34776,1936,0.50214,0
31735,-1233,0.48981,35720,944,0.55260,0
32071,336,0.51645,38649,2929,0.70916,0
33272,1201,0.61169,40777,2128,0.82291,0
34536,1264,0.71192,42474,1697,0.91362,0
35400,864,0.78043,42298,-176,0.90421,0
34648,-752,0.72080,41450,-848,0.85888,0
34792,144,0.73222,37833,-3617,0.66554,0
36440,1648,0.86290,35560,-2273,0.54405,0
35576,-864,0.79439,34936,-624,0.51069,0
35112,-464,0.75759,34856,-80,0.50641,0
33928,-1184,0.66371,34072,-784,0.46451,0
33624,-304,0.63960,33736,-336,0.44655,0
33064,-560,0.59519,33448,-288,0.43115,0
32503,-561,0.55071,32023,-1425,0.35498,0
32583,80,0.55705,30231,-1792,0.25919,0
32279,-304,0.53295,28374,-1857,0.15993,0
31591,-688,0.47839,28246,-128,0.15309,0
31223,-368,0.44921,28358,112,0.15908,0
30855,-368,0.42003,27302,-1056,0.10263,0
31047,192,0.43525,28022,720,0.14112,0
31383,336,0.46190,28630,608,0.17362,0
31959,576,0.50757,30103,1473,0.25235,0
31783,-176,0.49362,31031,928,0.30196,0
32231,448,0.52914,32808,1777,0.39694,0
32840,609,0.57743,33752,944,0.44740,0
33112,272,0.59900,33736,-16,0.44655,0
33032,-80,0.59266,33192,-544,0.41747,0
33224,192,0.60788,32824,-368,0.39780,0
33288,64,0.61296,32695,-129,0.39090,0
33528,240,0.63199,32856,161,0.39951,0
33656,128,0.64214,33096,240,0.41234,0
34072,416,0.67512,33128,32,0.41405,0
34744,672,0.72841,32711,-417,0.39176,0
35112,368,0.75759,32103,-608,0.35926,0
35064,-48,0.75379,32439,336,0.37722,0
34792,-272,0.73222,33864,1425,0.45339,0
34744,-48,0.72841,34776,912,0.50214,0
34472,-272,0.70684,34184,-592,0.47049,0
34616,144,0.71826,34600,416,0.49273,0
34568,-48,0.71446,35432,832,0.53720,0
35640,1072,0.79946,35640,208,0.54832,0
36088,448,0.83499,34488,-1152,0.48674,0
36312,224,0.85275,32375,-2113,0.37380,0
35080,-1232,0.75506,30791,-1584,0.28913,0
33384,-1696,0.62057,29959,-832,0.24465,0
32359,-1025,0.53929,32391,2432,0.37465,0
31623,-736,0.48093,34392,2001,0.48161,0
30903,-720,0.42384,35976,1584,0.56628,0
30567,-336,0.39719,35912,-64,0.56286,0
30967,400,0.42891,35400,-512,0.53549,0
30983,16,0.43018,34696,-704,0.49786,0
30087,-896,0.35913,33624,-1072,0.44056,0
31463,1376,0.46824,33304,-320,0.42346,0
31767,304,0.49235,33176,-128,0.41661,0
31991,224,0.51011,33464,288,0.43201,0
32135,144,0.52153,33416,-48,0.42944,0
32071,-64,0.51645,32471,-945,0.37893,0
32023,-48,0.51265,32023,-448,0.35498,0
32231,208,0.52914,31687,-336,0.33702,0
31719,-512,0.48854,31863,176,0.34643,0
31159,-560,0.44414,32535,672,0.38235,0
30679,-480,0.40607,33544,1009,0.43628,0
30647,-32,0.40354,34760,1216,0.50128,0
30439,-208,0.38704,35944,1184,0.56457,0
32103,1664,0.51899,36328,384,0.58510,0
32776,673,0.57236,36072,-256,0.57141,0
32615,-161,0.55959,35416,-656,0.53635,0
32215,-400,0.52787,35000,-416,0.51411,0
32695,480,0.56593,35208,208,0.52523,0
33192,497,0.60534,35048,-160,0.51668,0
34264,1072,0.69035,35320,272,0.53122,0
35112,848,0.75759,34072,-1248,0.46451,0
35112,0,0.75759,33144,-928,0.41490,0
35064,-48,0.75379,33016,-128,0.40806,0
34744,-320,0.72841,33480,464,0.43286,0
33960,-784,0.66624,33848,368,0.45253,0
33592,-368,0.63706,33832,-16,0.45168,0
34072,480,0.67512,33208,-624,0.41832,0
34216,144,0.68654,32183,-1025,0.36353,0
34376,160,0.69923,31847,-336,0.34557,0
34856,480,0.73729,31703,-144,0.33788,0
35128,272,0.75886,31607,-96,0.33275,0
34824,-304,0.73476,31335,-272,0.31821,0
33736,-1088,0.64848,32055,720,0.35669,0
33064,-672,0.59519,32423,368,0.37636,0
32631,-433,0.56086,32856,433,0.39951,0
32327,-304,0.53675,33000,144,0.40721,0
32215,-112,0.52787,33272,272,0.42174,0
32487,272,0.54944,33464,192,0.43201,0
31863,-624,0.49996,34104,640,0.46622,0
31751,-112,0.49108,34104,0,0.46622,0
31383,-368,0.46190,34424,320,0.48332,0
31351,-32,0.45936,34856,432,0.50641,0
31783,432,0.49362,35112,256,0.52010,0
33224,1441,0.60788,35800,688,0.55687,0
34488,1264,0.70811,35848,48,0.55944,0
34824,336,0.73476,35480,-368,0.53977,0
35192,368,0.76394,34856,-624,0.50641,0
36504,1312,0.86797,33096,-1760,0.41234,0
37881,1377,0.97716,30567,-2529,0.27715,0
38041,160,0.98985,28230,-2337,0.15223,0
37593,-448,0.95433,26950,-1280,0.08381,0
37353,-240,0.93529,27670,720,0.12230,0
37001,-352,0.90738,28999,1329,0.19334,0
37033,32,0.90992,30455,1456,0.27117,0
34712,-2321,0.72587,31863,1408,0.34643,0
32872,-1840,0.57997,33576,1713,0.43799,0
32599,-273,0.55832,34200,624,0.47135,0
32888,289,0.58124,33176,-1024,0.41661,0
33016,128,0.59139,31879,-1297,0.34728,0
32936,-80,0.58504,31063,-816,0.30367,0
32247,-689,0.53041,30423,-640,0.26946,0
32375,128,0.54056,30231,-192,0.25919,0
32231,-144,0.52914,30151,-80,0.25492,0
33688,1457,0.64468,30327,176,0.26433,0
33224,-464,0.60788,30439,112,0.27031,0
33944,720,0.66498,30295,-144,0.26261,0
34824,880,0.73476,30071,-224,0.25064,0
35464,640,0.78550,29559,-512,0.22327,0
35128,-336,0.75886,29255,-304,0.20702,0
34664,-464,0.72207,29335,80,0.21130,0
34120,-544,0.67893,29383,48,0.21387,0
32327,-1793,0.53675,30967,1584,0.29854,0
31287,-1040,0.45429,33800,2833,0.44997,0
30375,-912,0.38197,35672,1872,0.55003,0
29111,-1264,0.28174,36953,1281,0.61851,0
28711,-400,0.25002,37081,128,0.62535,0
29527,816,0.31473,36985,-96,0.62022,0
30391,864,0.38324,36712,-273,0.60562,0
31527,1136,0.47332,36632,-80,0.60135,0
31383,-144,0.46190,35352,-1280,0.53293,0
30935,-448,0.42637,33624,-1728,0.44056,0
31623,688,0.48093,33336,-288,0.42517,0
31959,336,0.50757,33272,-64,0.42174,0
31863,-96,0.49996,33064,-208,0.41063,0
32023,160,0.51265,32183,-881,0.36353,0
31719,-304,0.48854,32087,-96,0.35840,0
30935,-784,0.42637,32327,240,0.37123,0
31031,96,0.43399,33752,1425,0.44740,0
29959,-1072,0.34898,34520,768,0.48845,0
31399,1440,0.46317,35080,560,0.51839,0
30471,-928,0.38958,35656,576,0.54918,0
31351,880,0.45936,36280,624,0.58253,0
31943,592,0.50630,35656,-624,0.54918,0
31639,-304,0.48220,36969,1313,0.61936,0
34216,2577,0.68654,37209,240,0.63219,0
35336,1120,0.77535,36504,-705,0.59451,0
34952,-384,0.74491,35800,-704,0.55687,0
34808,-144,0.73349,34984,-816,0.51326,0
32888,-1920,0.58124,35416,432,0.53635,0
33464,576,0.62691,36072,656,0.57141,0
33320,-144,0.61549,35880,-192,0.56115,0
33752,432,0.64975,35032,-848,0.51582,0
33720,-32,0.64721,33304,-1728,0.42346,0
33640,-80,0.64087,32792,-512,0.39609,0
33736,96,0.64848,32455,-337,0.37807,0
33640,-96,0.64087,32023,-432,0.35498,0
33224,-416,0.60788,32183,160,0.36353,0
32872,-352,0.57997,32711,528,0.39176,0
31863,-1009,0.49996,33368,657,0.42688,0
30535,-1328,0.39466,34408,1040,0.48247,0
31575,1040,0.47712,35080,672,0.51839,0
32471,896,0.54817,35720,640,0.55260,0
33112,641,0.59900,35816,96,0.55773,0
33384,272,0.62057,35960,144,0.56543,0
32840,-544,0.57743,35672,-288,0.55003,0
32263,-577,0.53168,35288,-384,0.52951,0
31991,-272,0.51011,36792,1504,0.60990,0
32231,240,0.52914,37849,1057,0.66640,0
32904,673,0.58251,37657,-192,0.65614,0
33336,432,0.61676,35352,-2305,0.53293,0
33672,336,0.64341,30967,-4385,0.29854,0
34312,640,0.69416,28839,-2128,0.18479,0
34616,304,0.71826,28038,-801,0.14197,0
35368,752,0.77789,27558,-480,0.11631,0
34840,-528,0.73602,28598,1040,0.17191,0
34184,-656,0.68401,29847,1249,0.23867,0
32711,-1473,0.56720,30887,1040,0.29426,0
31927,-784,0.50504,31623,736,0.33360,0
31175,-752,0.44540,32679,1056,0.39005,0
30295,-880,0.37562,32904,225,0.40207,0
29863,-432,0.34137,33112,208,0.41319,0
31191,1328,0.44667,33384,272,0.42773,0
31255,64,0.45175,33736,352,0.44655,0
31671,416,0.48474,32824,-912,0.39780,0
32439,768,0.54563,31399,-1425,0.32163,0
33384,945,0.62057,31047,-352,0.30281,0
33944,560,0.66498,30535,-512,0.27544,0
34776,832,0.73095,30375,-160,0.26689,0
35288,512,0.77155,30631,256,0.28058,0
34792,-496,0.73222,30103,-528,0.25235,0
33592,-1200,0.63706,29991,-112,0.24637,0
32968,-624,0.58758,30887,896,0.29426,0
32647,-321,0.56213,31879,992,0.34728,0
32455,-192,0.54690,33576,1697,0.43799,0
32455,0,0.54690,34808,1232,0.50385,0
32231,-224,0.52914,35160,352,0.52266,0
32311,80,0.53548,35640,480,0.54832,0
33528,1217,0.63199,36104,464,0.57312,0
34888,1360,0.73983,34696,-1408,0.49786,0
34200,-688,0.68527,34296,-400,0.47648,0
34856,656,0.73729,33912,-384,0.45595,0
34584,-272,0.71572,34120,208,0.46707,0
33160,-1424,0.60281,33336,-784,0.42517,0
33144,-16,0.60154,32776,-560,0.39523,0
32119,-1025,0.52026,33144,368,0.41490,0
31959,-160,0.50757,32439,-705,0.37722,0
31367,-592,0.46063,31639,-800,0.33446,0
30983,-384,0.43018,30567,-1072,0.27715,0
31815,832,0.49615,31415,848,0.32248,0
32231,416,0.52914,32087,672,0.35840,0
31863,-368,0.49996,32343,256,0.37209,0
31447,-416,0.46697,32103,-240,0.35926,0
31303,-144,0.45555,31511,-592,0.32761,0
31447,144,0.46697,31607,96,0.33275,0
31831,384,0.49742,32311,704,0.37038,0
32215,384,0.52787,33256,945,0.42089,0
32231,16,0.52914,33960,704,0.45852,0
32856,625,0.57870,34120,160,0.46707,0
32487,-369,0.54944,34088,-32,0.46536,0
32055,-432,0.51519,34568,480,0.49102,0
32631,576,0.56086,36184,1616,0.57740,0
34488,1857,0.70811,37625,1441,0.65443,0
35640,1152,0.79946,38025,400,0.67581,0
35928,288,0.82230,36472,-1553,0.59279,0
35448,-480,0.78424,34376,-2096,0.48076,0
35064,-384,0.75379,31911,-2465,0.34900,0
35208,144,0.76520,31495,-416,0.32676,0
34920,-288,0.74237,31223,-272,0.31222,0
34152,-768,0.68147,30215,-1008,0.25834,0
34120,-32,0.67893,30215,0,0.25834,0
32792,-1328,0.57363,30359,144,0.26604,0
31687,-1105,0.48600,31991,1632,0.35327,0
31591,-96,0.47839,33720,1729,0.44569,0
29879,-1712,0.34264,34360,640,0.47990,0
30247,368,0.37182,34776,416,0.50214,0
31655,1408,0.48347,34968,192,0.51240,0
32599,944,0.55832,34312,-656,0.47734,0
33336,737,0.61676,33064,-1248,0.41063,0
33384,48,0.62057,32055,-1009,0.35669,0
33256,-128,0.61042,31383,-672,0.32077,0
32567,-689,0.55578,31687,304,0.33702,0
31559,-1008,0.47585,31959,272,0.35156,0
31479,-80,0.46951,31655,-304,0.33531,0
30535,-944,0.39466,31159,-496,0.30880,0
30023,-512,0.35406,33352,2193,0.42602,0
32279,0,0.27109,33064,0,0.59336,1
32135,-144,0.22026,32439,-625,0.37275,1
32904,769,0.49170,32407,-32,0.36145,1
32295,-609,0.27674,32423,16,0.36710,1
32263,-32,0.26544,32327,-96,0.33322,1
32311,48,0.28239,32311,-16,0.32757,1
32199,-112,0.24285,32535,224,0.40664,1
32167,-32,0.23156,32551,16,0.41228,1
32199,32,0.24285,32087,-464,0.24850,1
31911,-288,0.14119,32679,592,0.45747,1
31719,-192,0.07342,32599,-80,0.42923,1
31687,-32,0.06212,32471,-128,0.38405,1
31687,0,0.06212,32535,64,0.40664,1
31847,160,0.11860,32535,0,0.40664,1
32519,672,0.35581,32904,369,0.53689,1
32792,273,0.45217,32968,64,0.55948,1
32840,48,0.46911,32936,-32,0.54818,1
32840,0,0.46911,33064,128,0.59336,1
32792,-48,0.45217,32439,-625,0.37275,1
32872,80,0.48041,32503,64,0.39534,1
32968,96,0.51430,32455,-48,0.37840,1
32904,-64,0.49170,32359,-96,0.34451,1
32808,-96,0.45782,32151,-208,0.27109,1
32968,160,0.51430,32119,-32,0.25980,1
32920,-48,0.49735,32071,-48,0.24285,1
32375,-545,0.30498,31975,-96,0.20897,1
32888,513,0.48606,32039,64,0.23156,1
32663,-225,0.40664,31895,-144,0.18073,1
32503,-160,0.35016,31687,-208,0.10731,1
32679,176,0.41228,31895,208,0.18073,1
32391,-288,0.31062,32231,336,0.29933,1
32183,-208,0.23720,32279,48,0.31627,1
32231,48,0.25415,32167,-112,0.27674,1
32647,416,0.40099,32391,224,0.35581,1
32423,-224,0.32192,32471,80,0.38405,1
31911,-512,0.14119,32471,0,0.38405,1
31783,-128,0.09601,33416,945,0.71761,1
31927,144,0.14684,32439,-977,0.37275,1
31943,16,0.15249,32695,256,0.46311,1
32151,208,0.22591,32904,209,0.53689,1
32151,0,0.22591,32391,-513,0.35581,1
32119,-32,0.21461,32792,401,0.49735,1
32247,128,0.25980,32087,-705,0.24850,1
32295,48,0.27674,32663,576,0.45182,1
32087,-208,0.20332,32631,-32,0.44052,1
32471,384,0.33886,32872,241,0.52559,1
32599,128,0.38405,32920,48,0.54253,1
33432,833,0.67808,34216,1296,1.00000,1
32567,-865,0.37275,33016,-1200,0.57642,1
32487,-80,0.34451,32888,-128,0.53124,1
32471,-16,0.33886,32840,-48,0.51430,1
32391,-80,0.31062,32327,-513,0.33322,1
32535,144,0.36145,32391,64,0.35581,1
31895,-640,0.13555,32327,-64,0.33322,1
32647,752,0.40099,32311,-16,0.32757,1
32663,16,0.40664,32295,-16,0.32192,1
32551,-112,0.36710,32055,-240,0.23720,1
32487,-64,0.34451,31607,-448,0.07907,1
32535,48,0.36145,31815,208,0.15249,1
32952,417,0.50865,32199,384,0.28803,1
32904,-48,0.49170,32888,689,0.53124,1
32487,-417,0.34451,33736,848,0.83057,1
32647,160,0.40099,33240,-496,0.65549,1
32663,16,0.40664,33400,160,0.71197,1
32487,-176,0.34451,32920,-480,0.54253,1
32439,-48,0.32757,31815,-1105,0.15249,1
32295,-144,0.27674,32904,1089,0.53689,1
32295,0,0.27674,33112,208,0.61031,1
32279,-16,0.27109,33464,352,0.73456,1
32231,-48,0.25415,33416,-48,0.71761,1
32423,192,0.32192,33032,-384,0.58207,1
32343,-80,0.29368,33384,352,0.70632,1
32359,16,0.29933,33256,-128,0.66114,1
32199,-160,0.24285,33272,16,0.66678,1
32455,256,0.33322,33032,-240,0.58207,1
31719,-736,0.07342,32872,-160,0.52559,1
32663,944,0.40664,32471,-401,0.38405,1
32968,305,0.51430,32311,-160,0.32757,1
33736,768,0.78539,32375,64,0.35016,1
34056,320,0.89834,32423,48,0.36710,1
34184,128,0.94352,32647,224,0.44617,1
34264,80,0.97176,32872,225,0.52559,1
33528,-736,0.71197,32679,-193,0.45747,1
32727,-801,0.42923,32615,-64,0.43487,1
32647,-80,0.40099,32551,-64,0.41228,1
32631,-16,0.39534,32519,-32,0.40099,1
32567,-64,0.37275,32423,-96,0.36710,1
32904,337,0.49170,32519,96,0.40099,1
32535,-369,0.36145,32359,-160,0.34451,1
32711,176,0.42358,32407,48,0.36145,1
32695,-16,0.41793,32183,-224,0.28239,1
32840,145,0.46911,32055,-128,0.23720,1
32567,-273,0.37275,31927,-128,0.19202,1
31511,-1056,0.00000,32439,512,0.37275,1
32183,672,0.23720,32103,-336,0.25415,1
32023,-160,0.18073,31831,-272,0.15814,1
31959,-64,0.15814,32343,512,0.33886,1
31991,32,0.16943,32439,96,0.37275,1
32039,48,0.18637,33496,1057,0.74585,1
32183,144,0.23720,32856,-640,0.51994,1
32359,176,0.29933,32968,112,0.55948,1
32599,240,0.38405,33000,32,0.57077,1
32567,-32,0.37275,33096,96,0.60466,1
32343,-224,0.29368,33256,160,0.66114,1
32872,529,0.48041,32984,-272,0.56513,1
32247,-625,0.25980,32423,-561,0.36710,1
32327,80,0.28803,32327,-96,0.33322,1
32327,0,0.28803,31959,-368,0.20332,1
32423,96,0.32192,32199,240,0.28803,1
32343,-80,0.29368,31943,-256,0.19767,1
32279,-64,0.27109,31895,-48,0.18073,1
32343,64,0.29368,31879,-16,0.17508,1
32295,-48,0.27674,31975,96,0.20897,1
32327,32,0.28803,32231,256,0.29933,1
32327,0,0.28803,32311,80,0.32757,1
32263,-64,0.26544,31703,-608,0.11295,1
32279,16,0.27109,32343,640,0.33886,1
32439,160,0.32757,31991,-352,0.21461,1
32471,32,0.33886,32583,592,0.42358,1
32615,144,0.38969,32711,128,0.46876,1
32663,48,0.40664,32647,-64,0.44617,1
32551,-112,0.36710,32647,0,0.44617,1
32551,0,0.36710,33528,881,0.75715,1
32455,-96,0.33322,32359,-1169,0.34451,1
33000,545,0.52559,32599,240,0.42923,1
33304,304,0.63290,32567,-32,0.41793,1
33480,176,0.69502,32695,128,0.46311,1
33448,-32,0.68373,32888,193,0.53124,1
33016,-432,0.53124,32359,-529,0.34451,1
32711,-305,0.42358,32007,-352,0.22026,1
32055,-656,0.19202,31671,-336,0.10166,1
31879,-176,0.12990,31719,48,0.11860,1
32295,416,0.27674,31943,224,0.19767,1
33080,785,0.55383,32391,448,0.35581,1
32904,-176,0.49170,32391,0,0.35581,1
32920,16,0.49735,32103,-288,0.25415,1
33160,240,0.58207,32615,512,0.43487,1
33112,-48,0.56513,32455,-160,0.37840,1
32615,-497,0.38969,32519,64,0.40099,1
32455,-160,0.33322,32647,128,0.44617,1
32407,-48,0.31627,32583,-64,0.42358,1
32359,-48,0.29933,32391,-192,0.35581,1
32375,16,0.30498,32455,64,0.37840,1
32407,32,0.31627,32327,-128,0.33322,1
32391,-16,0.31062,32647,320,0.44617,1
32327,-64,0.28803,32663,16,0.45182,1
32311,-16,0.28239,32792,129,0.49735,1
32375,64,0.30498,32840,48,0.51430,1
32327,-48,0.28803,32727,-113,0.47441,1
32263,-64,0.26544,32872,145,0.52559,1
32327,64,0.28803,32776,-96,0.49170,1
32535,208,0.36145,32856,80,0.51994,1
31607,-928,0.03389,33496,640,0.74585,1
32327,720,0.28803,32599,-897,0.42923,1
32263,-64,0.26544,32567,-32,0.41793,1
32455,192,0.33322,32471,-96,0.38405,1
32695,240,0.41793,32727,256,0.47441,1
32792,97,0.45217,33016,289,0.57642,1
32824,32,0.46347,32615,-401,0.43487,1
32840,16,0.46911,32551,-64,0.41228,1
32231,-609,0.25415,32455,-96,0.37840,1
32792,561,0.45217,32503,48,0.39534,1
32343,-449,0.29368,32247,-256,0.30498,1
32792,449,0.45217,33096,849,0.60466,1
32711,-81,0.42358,32904,-192,0.53689,1
32231,-480,0.25415,32679,-225,0.45747,1
32439,208,0.32757,32407,-272,0.36145,1
32535,96,0.36145,31831,-576,0.15814,1
33320,785,0.63855,31703,-128,0.11295,1
33768,448,0.79668,32183,480,0.28239,1
33560,-208,0.72326,32391,208,0.35581,1
33624,64,0.74585,33080,689,0.59901,1
33544,-80,0.71761,33352,272,0.69502,1
32904,-640,0.49170,33448,96,0.72891,1
32327,-577,0.28803,33416,-32,0.71761,1
32151,-176,0.22591,33096,-320,0.60466,1
32263,112,0.26544,33048,-48,0.58772,1
32247,-16,0.25980,32663,-385,0.45182,1
32391,144,0.31062,32551,-112,0.41228,1
32375,-16,0.30498,32439,-112,0.37275,1
32311,-64,0.28239,32375,-64,0.35016,1
32327,16,0.28803,32439,64,0.37275,1
32279,-48,0.27109,32327,-112,0.33322,1
32263,-16,0.26544,32407,80,0.36145,1
32343,80,0.29368,32423,16,0.36710,1
32407,64,0.31627,32503,80,0.39534,1
32487,80,0.34451,32407,-96,0.36145,1
32343,-144,0.29368,32279,-128,0.31627,1
32311,-32,0.28239,32087,-192,0.24850,1
32535,224,0.36145,32023,-64,0.22591,1
32391,-144,0.31062,32007,-16,0.22026,1
32311,-80,0.28239,31847,-160,0.16378,1
32295,-16,0.27674,32455,608,0.37840,1
32263,-32,0.26544,32279,-176,0.31627,1
32279,16,0.27109,32615,336,0.43487,1
32295,16,0.27674,32487,-128,0.38969,1
32359,64,0.29933,32391,-96,0.35581,1
32535,176,0.36145,32535,144,0.40664,1
32776,241,0.44652,32776,241,0.49170,1
32888,112,0.48606,32840,64,0.51430,1
32920,32,0.49735,32824,-16,0.50865,1
32503,-417,0.35016,32776,-48,0.49170,1
32968,465,0.51430,32503,-273,0.39534,1
33048,80,0.54253,32695,192,0.46311,1
32792,-256,0.45217,32663,-32,0.45182,1
32792,0,0.45217,32792,129,0.49735,1
32711,-81,0.42358,32407,-385,0.36145,1
32471,-240,0.33886,32936,529,0.54818,1
32391,-80,0.31062,32920,-16,0.54253,1
32455,64,0.33322,32952,32,0.55383,1
32439,-16,0.32757,32679,-273,0.45747,1
32583,144,0.37840,32615,-64,0.43487,1
32551,-32,0.36710,32840,225,0.51430,1
33464,913,0.68938,32856,16,0.51994,1
33080,-384,0.55383,33064,208,0.59336,1
33224,144,0.60466,32856,-208,0.51994,1
33608,384,0.74020,32343,-513,0.33886,1
33000,-608,0.52559,32519,176,0.40099,1
32952,-48,0.50865,32808,289,0.50300,1
32936,-16,0.50300,32872,64,0.52559,1
32920,-16,0.49735,32872,0,0.52559,1
32792,-128,0.45217,32727,-145,0.47441,1
32503,-289,0.35016,32535,-192,0.40664,1
32327,-176,0.28803,32439,-96,0.37275,1
32215,-112,0.24850,32247,-192,0.30498,1
32103,-112,0.20897,31383,-864,0.00000,1
31927,-176,0.14684,31831,448,0.15814,1
32311,384,0.28239,32103,272,0.25415,1
32343,32,0.29368,32423,320,0.36710,1
32199,-144,0.24285,32183,-240,0.28239,1
32295,96,0.27674,32007,-176,0.22026,1
32679,384,0.41228,32135,128,0.26544,1
32615,-64,0.38969,32183,48,0.28239,1
32695,80,0.41793,32904,721,0.53689,1
32519,-176,0.35581,31767,-1137,0.13555,1
32711,192,0.42358,32135,368,0.26544,1
32407,-304,0.31627,31735,-400,0.12425,1
32231,-176,0.25415,31671,-64,0.10166,1
32391,160,0.31062,32023,352,0.22591,1
32327,-64,0.28803,33608,1585,0.78539,1
32423,96,0.32192,32952,-656,0.55383,1
32872,449,0.48041,32776,-176,0.49170,1
32840,-32,0.46911,33080,304,0.59901,1
32647,-193,0.40099,32840,-240,0.51430,1
32776,129,0.44652,32920,80,0.54253,1
32631,-145,0.39534,33160,240,0.62725,1
32375,-256,0.30498,33064,-96,0.59336,1
32183,-192,0.23720,33032,-32,0.58207,1
32183,0,0.23720,33176,144,0.63290,1
32808,625,0.45782,33576,400,0.77409,1
32583,-225,0.37840,33320,-256,0.68373,1
32599,16,0.38405,32663,-657,0.45182,1
32567,-32,0.37275,32231,-432,0.29933,1
32776,209,0.44652,32247,16,0.30498,1
32824,48,0.46347,32631,384,0.44052,1
32279,-545,0.27109,32904,273,0.53689,1
32343,64,0.29368,32984,80,0.56513,1
32327,-16,0.28803,32952,-32,0.55383,1
32135,-192,0.22026,32984,32,0.56513,1
32215,80,0.24850,33192,208,0.63855,1
32151,-64,0.22591,33272,80,0.66678,1
32856,705,0.47476,33576,304,0.77409,1
33288,432,0.62725,33352,-224,0.69502,1
33640,352,0.75150,33208,-144,0.64419,1
34008,368,0.88140,33288,80,0.67243,1
34344,336,1.00000,33352,64,0.69502,1
33768,-576,0.79668,33256,-96,0.66114,1
33512,-256,0.70632,32952,-304,0.55383,1
33944,432,0.85881,32247,-705,0.30498,1
33080,-864,0.55383,32295,48,0.32192,1
32808,-272,0.45782,32359,64,0.34451,1
32423,-385,0.32192,32359,0,0.34451,1
32920,497,0.49735,32583,224,0.42358,1
32904,-16,0.49170,32631,48,0.44052,1
32856,-48,0.47476,32423,-208,0.36710,1
32968,112,0.51430,32439,16,0.37275,1
33160,192,0.58207,32439,0,0.37275,1
33416,256,0.67243,32808,369,0.50300,1
33512,96,0.70632,32968,160,0.55948,1
33112,-400,0.56513,33208,240,0.64419,1
32487,-625,0.34451,33256,48,0.66114,1
32663,176,0.40664,32856,-400,0.51994,1
31975,-688,0.16378,32808,-48,0.50300,1
31895,-80,0.13555,32711,-97,0.46876,1
32007,112,0.17508,32631,-80,0.44052,1
32119,112,0.21461,32263,-368,0.31062,1
32215,96,0.24850,32151,-112,0.27109,1
32279,64,0.27109,32135,-16,0.26544,1
32263,-16,0.26544,32103,-32,0.25415,1
32295,32,0.27674,32007,-96,0.22026,1
32327,32,0.28803,31895,-112,0.18073,1
32391,64,0.31062,32135,240,0.26544,1
32535,144,0.36145,32423,288,0.36710,1
32647,112,0.40099,32776,353,0.49170,1
32679,32,0.41228,32471,-305,0.38405,1
32727,48,0.42923,32359,-112,0.34451,1
32856,129,0.47476,32455,96,0.37840,1
32920,64,0.49735,32599,144,0.42923,1
32647,-273,0.40099,32663,64,0.45182,1
33032,385,0.53689,33592,929,0.77974,1
33128,96,0.57077,32840,-752,0.51430,1
33160,32,0.58207,32776,-64,0.49170,1
32920,-240,0.49735,32343,-433,0.33886,1
32631,-289,0.39534,32087,-256,0.24850,1
32695,64,0.41793,32519,432,0.40099,1
32904,209,0.49170,32663,144,0.45182,1
33064,160,0.54818,32695,32,0.46311,1
33288,224,0.62725,32792,97,0.49735,1
33112,-176,0.56513,32391,-401,0.35581,1
33064,-48,0.54818,32007,-384,0.22026,1
33048,-16,0.54253,31655,-352,0.09601,1
33128,80,0.57077,31719,64,0.11860,1
33064,-64,0.54818,31783,64,0.14119,1
33176,112,0.58772,31863,80,0.16943,1
33336,160,0.64419,31799,-64,0.14684,1
33016,-320,0.53124,31639,-160,0.09036,1
33112,96,0.56513,31639,0,0.09036,1
33096,-16,0.55948,31943,304,0.19767,1
32904,-192,0.49170,32071,128,0.24285,1
32920,16,0.49735,32343,272,0.33886,1
33080,160,0.55383,32840,497,0.51430,1
33112,32,0.56513,32984,144,0.56513,1
32920,-192,0.49735,32824,-160,0.50865,1
32888,-32,0.48606,32840,16,0.51430,1
32647,-241,0.40099,32968,128,0.55948,1
32551,-96,0.36710,32856,-112,0.51994,1
32583,32,0.37840,32695,-161,0.46311,1
32599,16,0.38405,32519,-176,0.40099,1
32391,-208,0.31062,32295,-224,0.32192,1
32792,401,0.45217,32615,320,0.43487,1
32856,64,0.47476,32824,209,0.50865,1
32792,-64,0.45217,32920,96,0.54253,1
32776,-16,0.44652,32792,-128,0.49735,1
32824,48,0.46347,32487,-305,0.38969,1
32824,0,0.46347,32359,-128,0.34451,1
32824,0,0.46347,32231,-128,0.29933,1
32824,0,0.46347,32391,160,0.35581,1
32920,96,0.49735,32503,112,0.39534,1
33000,80,0.52559,32519,16,0.40099,1
33000,0,0.52559,32327,-192,0.33322,1
32888,-112,0.48606,32311,-16,0.32757,1
32776,-112,0.44652,32551,240,0.41228,1
32840,64,0.46911,32872,321,0.52559,1
31959,-881,0.15814,32727,-145,0.47441,1
32599,640,0.38405,32455,-272,0.37840,1
32327,-272,0.28803,32215,-240,0.29368,1
32503,176,0.35016,31959,-256,0.20332,1
32888,385,0.48606,32199,240,0.28803,1
33176,288,0.58772,32359,160,0.34451,1
33096,-80,0.55948,32151,-208,0.27109,1
33272,176,0.62160,32199,48,0.28803,1
33240,-32,0.61031,32359,160,0.34451,1
33880,640,0.83622,32551,192,0.41228,1
33640,-240,0.75150,32167,-384,0.27674,1
33128,-512,0.57077,31895,-272,0.18073,1
32711,-417,0.42358,32535,640,0.40664,1
32792,81,0.45217,32647,112,0.44617,1
32792,0,0.45217,32679,32,0.45747,1
32952,160,0.50865,32231,-448,0.29933,1
33000,48,0.52559,32856,625,0.51994,1
32968,-32,0.51430,33016,160,0.57642,1
32679,-289,0.41228,32615,-401,0.43487,1
32840,161,0.46911,32872,257,0.52559,1
32695,-145,0.41793,33464,592,0.73456,1
33256,561,0.61595,32984,-480,0.56513,1
33768,512,0.79668,32679,-305,0.45747,1
34008,240,0.88140,32711,32,0.46876,1
34008,0,0.88140,32808,97,0.50300,1
33992,-16,0.87575,32727,-81,0.47441,1
33592,-400,0.73456,32824,97,0.50865,1
33112,-480,0.56513,32968,144,0.55948,1
32952,-160,0.50865,32615,-353,0.43487,1
32824,-128,0.46347,32840,225,0.51430,1
32679,-145,0.41228,32727,-113,0.47441,1
32647,-32,0.40099,32904,177,0.53689,1
32631,-16,0.39534,32840,-64,0.51430,1
31831,-800,0.11295,32359,-481,0.34451,1
32615,784,0.38969,32519,160,0.40099,1
32279,-336,0.27109,32920,401,0.54253,1
32968,689,0.51430,32343,-577,0.33886,1
32343,-625,0.29368,32439,96,0.37275,1
32295,-48,0.27674,32407,-32,0.36145,1
32359,64,0.29933,32551,144,0.41228,1
32327,-32,0.28803,32695,144,0.46311,1
32215,-112,0.24850,32776,81,0.49170,1
32215,0,0.24850,32968,192,0.55948,1
32471,256,0.33886,33400,432,0.71197,1
32551,80,0.36710,33208,-192,0.64419,1
32471,-80,0.33886,32792,-416,0.49735,1
32407,-64,0.31627,32471,-321,0.38405,1
32423,16,0.32192,32439,-32,0.37275,1
32535,112,0.36145,32519,80,0.40099,1
32647,112,0.40099,32792,273,0.49735,1
32647,0,0.40099,32808,16,0.50300,1
32679,32,0.41228,32727,-81,0.47441,1
32808,129,0.45782,32583,-144,0.42358,1
33128,320,0.57077,32391,-192,0.35581,1
33048,-80,0.54253,32151,-240,0.27109,1
33048,0,0.54253,32231,80,0.29933,1
33048,0,0.54253,32247,16,0.30498,1
33096,48,0.55948,32231,-16,0.29933,1
33128,32,0.57077,32151,-80,0.27109,1
32840,-288,0.46911,31687,-464,0.10731,1
33032,192,0.53689,31671,-16,0.10166,1
32920,-112,0.49735,31751,80,0.12990,1
32808,-112,0.45782,32503,752,0.39534,1
32776,-32,0.44652,31719,-784,0.11860,1
32535,-241,0.36145,31703,-16,0.11295,1
32551,16,0.36710,31943,240,0.19767,1
32263,-288,0.26544,32551,608,0.41228,1
32375,112,0.30498,32695,144,0.46311,1
32423,48,0.32192,32519,-176,0.40099,1
32279,-144,0.27109,32583,64,0.42358,1
32551,272,0.36710,32535,-48,0.40664,1
32535,-16,0.36145,32471,-64,0.38405,1
32503,-32,0.35016,31543,-928,0.05648,1
32904,401,0.49170,32407,864,0.36145,1
32599,-305,0.38405,32583,176,0.42358,1
32936,337,0.50300,32551,-32,0.41228,1
32391,-545,0.31062,32231,-320,0.29933,1
33064,673,0.54818,32808,577,0.50300,1
32808,-256,0.45782,32776,-32,0.49170,1
32535,-273,0.36145,32952,176,0.55383,1
32471,-64,0.33886,33304,352,0.67808,1
32567,96,0.37275,33320,16,0.68373,1
32663,96,0.40664,32808,-512,0.50300,1
32599,-64,0.38405,33384,576,0.70632,1
32599,0,0.38405,33112,-272,0.61031,1
32695,96,0.41793,33080,-32,0.59901,1
32615,-80,0.38969,32727,-353,0.47441,1
32615,0,0.38969,32631,-96,0.44052,1
32647,32,0.40099,32551,-80,0.41228,1
32776,129,0.44652,32663,112,0.45182,1
32599,-177,0.38405,32599,-64,0.42923,1
32519,-80,0.35581,32535,-64,0.40664,1
32311,-208,0.28239,32295,-240,0.32192,1
32439,128,0.32757,32375,80,0.35016,1
32792,353,0.45217,32519,144,0.40099,1
32439,-353,0.32757,32631,112,0.44052,1
32776,337,0.44652,32920,289,0.54253,1
32776,0,0.44652,32711,-209,0.46876,1
32776,0,0.44652,32599,-112,0.42923,1
32695,-81,0.41793,32503,-96,0.39534,1
32599,-96,0.38405,32439,-64,0.37275,1
32583,-16,0.37840,32423,-16,0.36710,1
32583,0,0.37840,32247,-176,0.30498,1
32647,64,0.40099,32407,160,0.36145,1
32792,145,0.45217,32695,288,0.46311,1
32711,-81,0.42358,32727,32,0.47441,1
32808,97,0.45782,32808,81,0.50300,1
32551,-257,0.36710,32856,48,0.51994,1
33048,497,0.54253,32888,32,0.53124,1
32792,-256,0.45217,32663,-225,0.45182,1
32904,112,0.49170,32695,32,0.46311,1
32872,-32,0.48041,32439,-256,0.37275,1
32920,48,0.49735,32727,288,0.47441,1
32840,-80,0.46911,33032,305,0.58207,1
32727,-113,0.42923,32824,-208,0.50865,1
32872,145,0.48041,33144,320,0.62160,1
32872,0,0.48041,32535,-609,0.40664,1
33048,176,0.54253,32311,-224,0.32757,1
33224,176,0.60466,32439,128,0.37275,1
33112,-112,0.56513,32455,16,0.37840,1
33000,-112,0.52559,32439,-16,0.37275,1
33128,128,0.57077,32343,-96,0.33886,1
33000,-128,0.52559,32311,-32,0.32757,1
33464,464,0.68938,32279,-32,0.31627,1
33016,-448,0.53124,32039,-240,0.23156,1
32840,-176,0.46911,32311,272,0.32757,1
32615,-225,0.38969,32952,641,0.55383,1
32968,353,0.51430,32087,-865,0.24850,1
34232,1264,0.96047,32247,160,0.30498,1
33368,-864,0.65549,32135,-112,0.26544,1
33256,-112,0.61595,32247,112,0.30498,1
33048,-208,0.54253,32487,240,0.38969,1
32183,-865,0.23720,32471,-16,0.38405,1
32711,528,0.42358,32375,-96,0.35016,1
32519,-192,0.35581,32551,176,0.41228,1
32519,0,0.35581,32856,305,0.51994,1
31863,-656,0.12425,32776,-80,0.49170,1
33240,1377,0.61031,32471,-305,0.38405,1
32583,-657,0.37840,32295,-176,0.32192,1
32695,112,0.41793,32087,-208,0.24850,1
32695,0,0.41793,32135,48,0.26544,1
32727,32,0.42923,32183,48,0.28239,1
32647,-80,0.40099,32391,208,0.35581,1
32551,-96,0.36710,32471,80,0.38405,1
32343,-208,0.29368,32375,-96,0.35016,1
32359,16,0.29933,32439,64,0.37275,1
32359,0,0.29933,32551,112,0.41228,1
32359,0,0.29933,33016,465,0.57642,1
32503,144,0.35016,33304,288,0.67808,1
33224,721,0.60466,33176,-128,0.63290,1
33368,144,0.65549,33192,16,0.63855,1
32920,-448,0.49735,32984,-208,0.56513,1
33928,1008,0.85316,32679,-305,0.45747,1
33800,-128,0.80798,32583,-96,0.42358,1
33368,-432,0.65549,32567,-16,0.41793,1
32599,-769,0.38405,32567,0,0.41793,1
33064,465,0.54818,32567,0,0.41793,1
33272,0,0.53659,31943,0,0.45149,0
33032,-240,0.51590,31591,-352,0.42103,0
32663,-369,0.48410,32615,1024,0.50965,0
32247,-416,0.44825,33432,817,0.58035,0
32423,176,0.46341,33560,128,0.59143,0
33320,897,0.54072,33048,-512,0.54712,0
34392,1072,0.63311,32856,-192,0.53051,0
35560,1168,0.73378,32279,-577,0.48057,0
37097,1537,0.86624,31399,-880,0.40441,0
38313,1216,0.97104,29847,-1552,0.27010,0
38649,336,1.00000,28198,-1649,0.12739,0
37033,-1616,0.86073,28422,224,0.14678,0
34520,-2513,0.64414,30103,1681,0.29225,0
31479,-3041,0.38206,31271,1168,0.39334,0
28839,-2640,0.15453,32631,1360,0.51103,0
27126,-1713,0.00689,34040,1409,0.63297,0
27046,-80,0.00000,34888,848,0.70636,0
27686,640,0.05516,35736,848,0.77975,0
28775,1089,0.14901,35880,144,0.79221,0
29671,896,0.22623,35848,-32,0.78944,0
30759,1088,0.32000,35848,0,0.78944,0
31383,624,0.37378,36120,272,0.81298,0
32359,976,0.45790,35976,-144,0.80052,0
32295,-64,0.45238,34920,-1056,0.70913,0
32151,-144,0.43997,34136,-784,0.64128,0
31847,-304,0.41377,33736,-400,0.60666,0
31559,-288,0.38895,32920,-816,0.53605,0
31511,-48,0.38481,31879,-1041,0.44595,0
31511,0,0.38481,31447,-432,0.40857,0
31799,288,0.40964,31159,-288,0.38364,0
32599,800,0.47858,30391,-768,0.31718,0
33416,817,0.54900,29863,-528,0.27148,0
33512,96,0.55727,29703,-160,0.25764,0
33128,-384,0.52417,29527,-176,0.24241,0
32952,-176,0.50901,29287,-240,0.22164,0
32792,-160,0.49522,29591,304,0.24794,0
32375,-417,0.45928,29895,304,0.27425,0
31511,-864,0.38481,30215,320,0.30195,0
31511,0,0.38481,31511,1296,0.41411,0
31767,256,0.40688,33176,1665,0.55820,0
31911,144,0.41929,33800,624,0.61220,0
32503,592,0.47031,34376,576,0.66205,0
33448,945,0.55175,35528,1152,0.76175,0
34168,720,0.61381,36056,528,0.80744,0
35000,832,0.68551,35256,-800,0.73821,0
34632,-368,0.65380,34104,-1152,0.63851,0
33032,-1600,0.51590,33048,-1056,0.54712,0
31383,-1649,0.37378,33048,0,0.54712,0
30871,-512,0.32966,33368,320,0.57482,0
31095,224,0.34896,33416,48,0.57897,0
32295,1200,0.45238,33432,16,0.58035,0
33256,961,0.53521,33384,-48,0.57620,0
33896,640,0.59036,32872,-512,0.53189,0
33864,-32,0.58761,31511,-1361,0.41411,0
34584,720,0.64966,30439,-1072,0.32133,0
34920,336,0.67862,30231,-208,0.30333,0
35096,176,0.69379,30055,-176,0.28810,0
34952,-144,0.68138,30023,-32,0.28533,0
34424,-528,0.63587,30455,432,0.32272,0
34088,-336,0.60691,31735,1280,0.43349,0
33240,-848,0.53383,32535,800,0.50273,0
32808,-432,0.49660,32567,32,0.50550,0
32343,-465,0.45652,31863,-704,0.44457,0
32007,-336,0.42756,31271,-592,0.39334,0
31511,-496,0.38481,31175,-96,0.38503,0
31655,144,0.39722,31975,800,0.45426,0
31991,336,0.42618,33000,1025,0.54297,0
31191,-800,0.35724,34296,1296,0.65513,0
31959,768,0.42343,34584,288,0.68005,0
32039,80,0.43032,35512,928,0.76036,0
31751,-288,0.40550,36344,832,0.83237,0
31719,-32,0.40274,36376,32,0.83514,0
31815,96,0.41101,35528,-848,0.76175,0
32727,912,0.48961,34504,-1024,0.67313,0
33656,929,0.56968,33304,-1200,0.56928,0
33832,176,0.58485,31575,-1729,0.41965,0
33736,-96,0.57658,30999,-576,0.36980,0
33336,-400,0.54210,31575,576,0.41965,0
32952,-384,0.50901,33240,1665,0.56374,0
31287,-1665,0.36551,34152,912,0.64267,0
31031,-256,0.34345,34024,-128,0.63159,0
30807,-224,0.32414,34136,112,0.64128,0
31079,272,0.34758,34152,16,0.64267,0
31591,512,0.39171,33928,-224,0.62328,0
31639,48,0.39585,33384,-544,0.57620,0
31703,64,0.40136,32952,-432,0.53881,0
32455,752,0.46617,32535,-417,0.50273,0
33032,577,0.51590,32455,-80,0.49580,0
33368,336,0.54486,32631,176,0.51103,0
33224,-144,0.53245,31623,-1008,0.42380,0
34264,1040,0.62208,31719,96,0.43211,0
33640,-624,0.56830,31703,-16,0.43072,0
32711,-929,0.48824,31975,272,0.45426,0
33944,1233,0.59450,31847,-128,0.44318,0
34712,768,0.66069,31767,-80,0.43626,0
34456,-256,0.63863,32888,1121,0.53328,0
34184,-272,0.61519,32904,16,0.53466,0
33848,-336,0.58623,33272,368,0.56651,0
34024,176,0.60140,33992,720,0.62882,0
34424,400,0.63587,34232,240,0.64959,0
34696,272,0.65931,33512,-720,0.58728,0
34600,-96,0.65104,32375,-1137,0.48888,0
34424,-176,0.63587,32503,128,0.49996,0
34328,-96,0.62760,33448,945,0.58174,0
34296,-32,0.62484,33896,448,0.62051,0
34472,176,0.64001,32920,-976,0.53605,0
34168,-304,0.61381,34104,1184,0.63851,0
33032,-1136,0.51590,34408,304,0.66482,0
32391,-641,0.46066,33896,-512,0.62051,0
32487,96,0.46893,33160,-736,0.55682,0
33064,577,0.51866,32856,-304,0.53051,0
33416,352,0.54900,33688,832,0.60251,0
33640,224,0.56830,34360,672,0.66067,0
32503,-1137,0.47031,34312,-48,0.65651,0
31335,-1168,0.36965,34664,352,0.68698,0
31111,-224,0.35034,35000,336,0.71605,0
31591,480,0.39171,35624,624,0.77006,0
31863,272,0.41515,37001,1377,0.88923,0
32647,784,0.48272,37337,336,0.91830,0
33192,545,0.52969,37017,-320,0.89061,0
32167,-1025,0.44135,35656,-1361,0.77283,0
31719,-448,0.40274,34712,-944,0.69113,0
33096,1377,0.52142,35368,656,0.74790,0
34424,1328,0.63587,34696,-672,0.68974,0
34968,544,0.68275,32167,-2529,0.47088,0
35000,32,0.68551,30727,-1440,0.34626,0
34984,-16,0.68413,29847,-880,0.27010,0
34520,-464,0.64414,29031,-816,0.19948,0
33880,-640,0.58899,28374,-657,0.14262,0
33304,-576,0.53934,28919,545,0.18979,0
33096,-208,0.52142,29831,912,0.26871,0
32039,-1057,0.43032,30455,624,0.32272,0
31367,-672,0.37240,31127,672,0.38087,0
31207,-160,0.35861,31847,720,0.44318,0
31271,64,0.36413,32007,160,0.45703,0
31447,176,0.37930,31639,-368,0.42518,0
32071,624,0.43308,31607,-32,0.42241,0
31975,-96,0.42480,31991,384,0.45565,0
31991,16,0.42618,32423,432,0.49303,0
32359,368,0.45790,32423,0,0.49303,0
32968,609,0.51039,32984,561,0.54158,0
32920,-48,0.50625,33400,416,0.57759,0
33288,368,0.53796,33480,80,0.58451,0
33160,-128,0.52693,31703,-1777,0.43072,0
33544,384,0.56003,31223,-480,0.38918,0
33848,304,0.58623,30903,-320,0.36149,0
33768,-80,0.57933,30471,-432,0.32410,0
33080,-688,0.52004,30999,528,0.36980,0
32535,-545,0.47307,30631,-368,0.33795,0
32391,-144,0.46066,32007,1376,0.45703,0
31191,-1200,0.35724,32711,704,0.51796,0
30871,-320,0.32966,33720,1009,0.60528,0
32183,1312,0.44273,35112,1392,0.72575,0
33560,1377,0.56141,35208,96,0.73405,0
33512,-48,0.55727,34520,-688,0.67451,0
33240,-272,0.53383,34920,400,0.70913,0
33048,-192,0.51728,34824,-96,0.70082,0
33432,384,0.55037,34488,-336,0.67174,0
34280,848,0.62346,34344,-144,0.65928,0
35176,896,0.70068,33624,-720,0.59697,0
35896,720,0.76273,32455,-1169,0.49580,0
36136,240,0.78342,31127,-1328,0.38087,0
35448,-688,0.72412,30487,-640,0.32549,0
35096,-352,0.69379,31287,800,0.39472,0
34056,-1040,0.60415,31815,528,0.44042,0
33688,-368,0.57244,31815,0,0.44042,0
32423,-1265,0.46341,32295,480,0.48196,0
32279,-144,0.45100,32359,64,0.48749,0
32920,641,0.50625,32231,-128,0.47642,0
33416,496,0.54900,32103,-128,0.46534,0
33016,-400,0.51452,32311,208,0.48334,0
32327,-689,0.45514,32455,144,0.49580,0
31479,-848,0.38206,32840,385,0.52912,0
31639,160,0.39585,33384,544,0.57620,0
31879,240,0.41653,33496,112,0.58589,0
32407,528,0.46204,33560,64,0.59143,0
32423,16,0.46341,32792,-768,0.52497,0
32455,32,0.46617,31559,-1233,0.41826,0
33464,1009,0.55313,32247,688,0.47780,0
34488,1024,0.64139,32487,240,0.49857,0
35048,560,0.68965,31831,-656,0.44180,0
35128,80,0.69654,31751,-80,0.43488,0
35080,-48,0.69241,31815,64,0.44042,0
34472,-608,0.64001,31815,0,0.44042,0
33720,-752,0.57520,32327,512,0.48473,0
33096,-624,0.52142,33480,1153,0.58451,0
33528,432,0.55865,33688,208,0.60251,0
33912,384,0.59174,33736,48,0.60666,0
34184,272,0.61519,34184,448,0.64543,0
33928,-256,0.59312,34312,128,0.65651,0
33976,48,0.59726,35144,832,0.72852,0
33736,-240,0.57658,35176,32,0.73129,0
33160,-576,0.52693,33768,-1408,0.60943,0
33112,-48,0.52280,32087,-1681,0.46395,0
33128,16,0.52417,31479,-608,0.41134,0
32343,-785,0.45652,31031,-448,0.37257,0
32487,144,0.46893,29127,-1904,0.20779,0
33480,993,0.55451,28679,-448,0.16902,0
32247,-1233,0.44825,29127,448,0.20779,0
31319,-928,0.36827,30375,1248,0.31579,0
30631,-688,0.30897,31463,1088,0.40995,0
30119,-512,0.26485,32519,1056,0.50134,0
30167,48,0.26898,33848,1329,0.61636,0
30087,-80,0.26209,34504,656,0.67313,0
29799,-288,0.23727,34856,352,0.70359,0
30039,240,0.25795,34232,-624,0.64959,0
31255,1216,0.36275,35384,1152,0.74929,0
31687,432,0.39998,34312,-1072,0.65651,0
31607,-80,0.39309,34152,-160,0.64267,0
31911,304,0.41929,34296,144,0.65513,0
31975,64,0.42480,34840,544,0.70221,0
32167,192,0.44135,35864,1024,0.79083,0
32519,352,0.47169,36504,640,0.84621,0
32936,417,0.50763,36584,80,0.85314,0
33528,592,0.55865,35688,-896,0.77559,0
34008,480,0.60002,33896,-1792,0.62051,0
33784,-224,0.58071,32215,-1681,0.47503,0
33208,-576,0.53107,31655,-560,0.42657,0
32391,-817,0.46066,31175,-480,0.38503,0
32247,-144,0.44825,31207,32,0.38780,0
32471,224,0.46755,31319,112,0.39749,0
32952,481,0.50901,31815,496,0.44042,0
33368,416,0.54486,31591,-224,0.42103,0
33720,352,0.57520,31623,32,0.42380,0
34120,400,0.60967,30967,-656,0.36703,0
34152,32,0.61243,30871,-96,0.35872,0
34216,64,0.61794,30903,32,0.36149,0
34232,16,0.61932,31063,160,0.37534,0
33768,-464,0.57933,30967,-96,0.36703,0
33272,-496,0.53659,29847,-1120,0.27010,0
33176,-96,0.52831,29207,-640,0.21471,0
32663,-513,0.48410,29335,128,0.22579,0
32519,-144,0.47169,29895,560,0.27425,0
32695,176,0.48686,30455,560,0.32272,0
32984,289,0.51176,30871,416,0.35872,0
33112,128,0.52280,32263,1392,0.47919,0
31543,-1569,0.38757,34712,2449,0.69113,0
30919,-624,0.33379,36552,1840,0.85037,0
31319,400,0.36827,37865,1313,0.96400,0
31591,272,0.39171,37897,32,0.96677,0
32327,736,0.45514,38281,384,1.00000,0
32071,-256,0.43308,36136,-2145,0.81437,0
31879,-192,0.41653,34136,-2000,0.64128,0
31959,80,0.42343,32984,-1152,0.54158,0
32407,448,0.46204,31623,-1361,0.42380,0
32984,577,0.51176,30775,-848,0.35041,0
32856,-128,0.50073,30951,176,0.36564,0
32071,-785,0.43308,31415,464,0.40580,0
32407,336,0.46204,31815,400,0.44042,0
32487,80,0.46893,31591,-224,0.42103,0
33528,1041,0.55865,30887,-704,0.36010,0
34488,960,0.64139,30647,-240,0.33933,0
35256,768,0.70758,30487,-160,0.32549,0
35448,192,0.72412,30903,416,0.36149,0
34472,-976,0.64001,31623,720,0.42380,0
33464,-1008,0.55313,32295,672,0.48196,0
32615,-849,0.47996,33544,1249,0.59005,0
33288,673,0.53796,35352,1808,0.74652,0
32984,-304,0.51176,35624,272,0.77006,0
33240,256,0.53383,34536,-1088,0.67590,0
33432,192,0.55037,33880,-656,0.61913,0
33032,-400,0.51590,33992,112,0.62882,0
32343,-689,0.45652,33176,-816,0.55820,0
31687,-656,0.39998,32615,-561,0.50965,0
31351,-336,0.37102,32279,-336,0.48057,0
31767,416,0.40688,31223,-1056,0.38918,0
31655,-112,0.39722,30663,-560,0.34072,0
32647,992,0.48272,29991,-672,0.28256,0
31911,-736,0.41929,30263,272,0.30610,0
32295,384,0.45238,30663,400,0.34072,0
32327,32,0.45514,31063,400,0.37534,0
33880,1553,0.58899,31191,128,0.38641,0
33512,-368,0.55727,30759,-432,0.34903,0
33688,176,0.57244,30279,-480,0.30749,0
33688,0,0.57244,29527,-752,0.24241,0
33288,-400,0.53796,29015,-512,0.19810,0
31991,-1297,0.42618,28807,-208,0.18010,0
31447,-544,0.37930,29975,1168,0.28118,0
30087,-1360,0.26209,30343,368,0.31302,0
30183,96,0.27036,31751,1408,0.43488,0
30855,672,0.32828,32423,672,0.49303,0
31175,320,0.35586,33000,577,0.54297,0
31815,640,0.41101,33480,480,0.58451,0
31927,112,0.42067,33480,0,0.58451,0
31671,-256,0.39860,33288,-192,0.56789,0
31735,64,0.40412,33640,352,0.59836,0
32151,416,0.43997,33560,-80,0.59143,0
32423,272,0.46341,32503,-1057,0.49996,0
32631,208,0.48134,30887,-1616,0.36010,0
33048,417,0.51728,30743,-144,0.34764,0
32583,-465,0.47720,30631,-112,0.33795,0
32471,-112,0.46755,30935,304,0.36426,0
32984,513,0.51176,30919,-16,0.36287,0
33336,352,0.54210,31111,192,0.37949,0
33528,192,0.55865,31495,384,0.41272,0
33560,32,0.56141,32471,976,0.49719,0
33240,-320,0.53383,32663,192,0.51380,0
32936,-304,0.50763,32263,-400,0.47919,0
32695,-241,0.48686,32808,545,0.52635,0
32920,225,0.50625,33544,736,0.59005,0
32343,-577,0.45652,34216,672,0.64820,0
33112,769,0.52280,34680,464,0.68836,0
33560,448,0.56141,35288,608,0.74098,0
34120,560,0.60967,36072,784,0.80883,0
33544,-576,0.56003,35736,-336,0.77975,0
34056,512,0.60415,34440,-1296,0.66759,0
34056,0,0.60415,33336,-1104,0.57205,0
33592,-464,0.56416,33000,-336,0.54297,0
33000,-592,0.51314,32695,-305,0.51657,0
32583,-417,0.47720,32808,113,0.52635,0
32904,321,0.50487,33272,464,0.56651,0
33176,272,0.52831,33576,304,0.59282,0
34136,960,0.61105,33928,352,0.62328,0
33640,-496,0.56830,33368,-560,0.57482,0
33496,-144,0.55589,33608,240,0.59559,0
32792,-704,0.49522,33512,-96,0.58728,0
32071,-721,0.43308,34200,688,0.64682,0
32295,224,0.45238,34008,-192,0.63020,0
32583,288,0.47720,34184,176,0.64543,0
32551,-32,0.47445,32263,-1921,0.47919,0
32439,-112,0.46479,33192,929,0.55958,0
31671,-768,0.39860,33688,496,0.60251,0
32487,816,0.46893,33720,32,0.60528,0
32824,337,0.49797,32343,-1377,0.48611,0
32776,-48,0.49384,30487,-1856,0.32549,0
33464,688,0.55313,29351,-1136,0.22717,0
33288,-176,0.53796,28775,-576,0.17733,0
32567,-721,0.47583,28246,-529,0.13154,0
32263,-304,0.44963,29463,1217,0.23687,0
32087,-176,0.43446,30215,752,0.30195,0
32663,576,0.48410,30807,592,0.35318,0
32727,64,0.48961,31191,384,0.38641,0
32727,0,0.48961,31063,-128,0.37534,0
33368,641,0.54486,31751,688,0.43488,0
33432,64,0.55037,31479,-272,0.41134,0
32391,-1041,0.46066,32567,1088,0.50550,0
32135,-256,0.43859,31895,-672,0.44734,0
31751,-384,0.40550,32711,816,0.51796,0
32167,416,0.44135,33368,657,0.57482,0
32984,817,0.51176,32551,-817,0.50411,0
33480,496,0.55451,32359,-192,0.48749,0
33256,-224,0.53521,32679,320,0.51519,0
33272,16,0.53659,32695,16,0.51657,0
33480,208,0.55451,32792,97,0.52497,0
33144,-336,0.52555,33112,320,0.55266,0
32599,-545,0.47858,33128,16,0.55405,0
33160,561,0.52693,32215,-913,0.47503,0
33400,240,0.54762,31575,-640,0.41965,0
33272,-128,0.53659,31479,-96,0.41134,0
32407,-865,0.46204,31879,400,0.44595,0
32471,64,0.46755,32135,256,0.46811,0
31799,-672,0.40964,32103,-32,0.46534,0
31751,-48,0.40550,32343,240,0.48611,0
31399,-352,0.37516,32551,208,0.50411,0
30903,-496,0.33241,32247,-304,0.47780,0
32551,1648,0.47445,32936,689,0.53743,0
33016,465,0.51452,34600,1664,0.68144,0
32679,-337,0.48548,34856,256,0.70359,0
33736,1057,0.57658,34200,-656,0.64682,0
34232,496,0.61932,33624,-576,0.59697,0
34520,288,0.64414,32968,-656,0.54020,0
33944,-576,0.59450,32904,-64,0.53466,0
33416,-528,0.54900,32423,-481,0.49303,0
33416,0,0.54900,33240,817,0.56374,0
33832,416,0.58485,32599,-641,0.50826,0
34232,400,0.61932,31639,-960,0.42518,0
33160,-1072,0.52693,31207,-432,0.38780,0
32071,-1089,0.43308,31559,352,0.41826,0
32087,16,0.43446,33048,1489,0.54712,0
32808,721,0.49660,34200,1152,0.64682,0
33704,896,0.57382,34504,304,0.67313,0
34488,784,0.64139,34504,0,0.67313,0
34648,160,0.65518,32936,-1568,0.53743,0
35688,1040,0.74481,33288,352,0.56789,0
34856,-832,0.67310,32888,-400,0.53328,0
34984,128,0.68413,32039,-849,0.45980,0
34952,-32,0.68138,30695,-1344,0.34349,0
34264,-688,0.62208,30519,-176,0.32826,0
32615,-1649,0.47996,31063,544,0.37534,0
31719,-896,0.40274,31911,848,0.44872,0
31239,-480,0.36137,33400,1489,0.57759,0
31287,48,0.36551,32311,-1089,0.48334,0
29863,-1424,0.24278,31287,-1024,0.39472,0
29943,80,0.24968,31639,352,0.42518,0
29847,-96,0.24140,32103,464,0.46534,0
30343,496,0.28415,33000,897,0.54297,0
31383,1040,0.37378,33448,448,0.58174,0
32439,1056,0.46479,33048,-400,0.54712,0
33512,1073,0.55727,31415,-1633,0.40580,0
34536,1024,0.64552,29911,-1504,0.27564,0
35032,496,0.68827,28454,-1457,0.14955,0
35144,112,0.69792,27782,-672,0.09139,0
35224,80,0.70482,27206,-576,0.04154,0
34072,-1152,0.60553,26726,-480,0.00000,0
33688,-384,0.57244,27718,992,0.08585,0
32167,-1521,0.44135,30007,2289,0.28395,0
31351,-816,0.37102,33096,3089,0.55128,0
29959,-1392,0.25106,35720,2624,0.77836,0
30487,528,0.29656,37081,1361,0.89615,0
30791,304,0.32276,36584,-497,0.85314,0
30919,128,0.33379,36072,-512,0.80883,0
31319,400,0.36827,35912,-160,0.79498,0
31831,512,0.41239,34888,-1024,0.70636,0
32183,352,0.44273,35368,480,0.74790,0
33144,961,0.52555,34904,-464,0.70775,0
32920,-224,0.50625,33208,-1696,0.56097,0
33736,816,0.57658,32439,-769,0.49442,0
33912,176,0.59174,32375,-64,0.48888,0
33448,-464,0.55175,31431,-944,0.40718,0
33048,-400,0.51728,30567,-864,0.33241,0
34120,1072,0.60967,31303,736,0.39611,0
34696,576,0.65931,30999,-304,0.36980,0
35608,912,0.73791,30663,-336,0.34072,0
36248,640,0.79307,30631,-32,0.33795,0
36024,-224,0.77377,30471,-160,0.32410,0
34456,-1568,0.63863,31463,992,0.40995,0
33336,-1120,0.54210,32824,1361,0.52774,0
33336,0,0.54210,34744,1920,0.69390,0
33304,-32,0.53934,35368,624,0.74790,0
32984,-320,0.51176,36472,1104,0.84344,0
32727,-257,0.48961,37705,1233,0.95015,0
32407,-320,0.46204,37145,-560,0.90169,0
32279,-128,0.45100,35752,-1393,0.78113,0
32247,-32,0.44825,35240,-512,0.73682,0
31943,-304,0.42205,35000,-240,0.71605,0
31639,-304,0.39585,34776,-224,0.69667,0
32071,432,0.43308,34024,-752,0.63159,0
32023,-48,0.42894,32792,-1232,0.52497,0
32151,128,0.43997,32663,-129,0.51380,0
31991,-160,0.42618,31783,-880,0.43765,0
32295,304,0.45238,31351,-432,0.40026,0
32519,224,0.47169,30903,-448,0.36149,0
32647,128,0.48272,30919,16,0.36287,0
32391,-256,0.46066,30903,-16,0.36149,0
32407,16,0.46204,32007,1104,0.45703,0
32119,-288,0.43721,33240,1233,0.56374,0
33416,1297,0.54900,33512,272,0.58728,0
34040,624,0.60278,33880,368,0.61913,0
33816,-224,0.58347,34376,496,0.66205,0
33640,-176,0.56830,34184,-192,0.64543,0
33224,-416,0.53245,34488,304,0.67174,0
33272,48,0.53659,35128,640,0.72713,0
33640,368,0.56830,34616,-512,0.68282,0
34408,768,0.63449,33384,-1232,0.57620,0
34376,-32,0.63173,32055,-1329,0.46119,0
33560,-816,0.56141,31111,-944,0.37949,0
34040,480,0.60278,30071,-1040,0.28949,0
34104,64,0.60829,29095,-976,0.20502,0
33864,-240,0.58761,28374,-721,0.14262,0
33624,-240,0.56692,28310,-64,0.13708,0
32231,-1393,0.44687,28727,417,0.17317,0
31063,-1168,0.34620,30567,1840,0.33241,0
30247,-816,0.27588,31847,1280,0.44318,0
30087,-160,0.26209,32391,544,0.49026,0
30711,624,0.31587,32711,320,0.51796,0
31415,704,0.37654,33368,657,0.57482,0
32439,1024,0.46479,33384,16,0.57620,0
33576,1137,0.56279,33320,-64,0.57066,0
35000,1424,0.68551,33512,192,0.58728,0
36376,1376,0.80410,32407,-1105,0.49165,0
36136,-240,0.78342,32343,-64,0.48611,0
36184,48,0.78755,31463,-880,0.40995,0
33608,-2576,0.56554,31319,-144,0.39749,0
32679,-929,0.48548,31655,336,0.42657,0
32343,-336,0.45652,32055,400,0.46119,0
32519,176,0.47169,32535,480,0.50273,0
32743,224,0.49099,31815,-720,0.44042,0
33240,497,0.53383,30903,-912,0.36149,0
34216,976,0.61794,29639,-1264,0.25210,0
34872,656,0.67448,28807,-832,0.18010,0
35224,352,0.70482,29575,768,0.24656,0
34760,-464,0.66483,30503,928,0.32687,0
33800,-960,0.58209,31319,816,0.39749,0
32231,-1569,0.44687,33112,1793,0.55266,0
31511,-720,0.38481,34104,992,0.63851,0
30775,-736,0.32138,34888,784,0.70636,0
30151,-624,0.26760,35272,384,0.73959,0
30183,32,0.27036,35112,-160,0.72575,0
30663,480,0.31173,35000,-112,0.71605,0
31863,1200,0.41515,34552,-448,0.67728,0
32792,929,0.49522,34184,-368,0.64543,0
32599,-193,0.47858,34984,800,0.71467,0
32808,209,0.49660,34616,-368,0.68282,0
33304,496,0.53934,34728,112,0.69251,0
33528,224,0.55865,33944,-784,0.62466,0
32920,-608,0.50625,32583,-1361,0.50688,0
31991,-929,0.42618,32423,-160,0.49303,0
31031,-960,0.34345,31879,-544,0.44595,0
29463,-1568,0.20831,32007,128,0.45703,0
30519,1056,0.29932,32423,416,0.49303,0
32087,1568,0.43446,33800,1377,0.61220,0
32087,0,0.43446,33096,-704,0.55128,0
32311,224,0.45376,33192,96,0.55958,0
32327,16,0.45514,32808,-384,0.52635,0
32679,352,0.48548,32391,-417,0.49026,0
33080,401,0.52004,32487,96,0.49857,0
32631,-449,0.48134,32135,-352,0.46811,0
33144,513,0.52555,31543,-592,0.41688,0
32936,-208,0.50763,30903,-640,0.36149,0
32968,32,0.51039,31159,256,0.38364,0
33064,0,0.41870,32535,0,0.39534,1
33160,96,0.46123,32856,321,0.46089,1
33144,-16,0.45414,32888,32,0.46743,1
33080,-64,0.42579,33176,288,0.52624,1
33320,240,0.53212,33832,656,0.66020,1
33848,528,0.76606,34632,800,0.82357,1
33432,-416,0.58175,34776,144,0.85297,1
33400,-32,0.56757,35000,224,0.89871,1
33400,0,0.56757,34840,-160,0.86604,1
33432,32,0.58175,35192,352,0.93792,1
33544,112,0.63137,35496,304,1.00000,1
33496,-48,0.61010,35384,-112,0.97713,1
33064,-432,0.41870,35320,-64,0.96406,1
33448,384,0.58883,35096,-224,0.91832,1
33752,304,0.72353,35224,128,0.94446,1
33528,-224,0.62428,35240,16,0.94772,1
33496,-32,0.61010,34984,-256,0.89545,1
33496,0,0.61010,34808,-176,0.85951,1
33384,-112,0.56048,34840,32,0.86604,1
33336,-48,0.53921,34744,-96,0.84644,1
33368,32,0.55339,34552,-192,0.80723,1
33352,-16,0.54630,34328,-224,0.76149,1
33336,-16,0.53921,33848,-480,0.66347,1
33384,48,0.56048,33816,-32,0.65693,1
33400,16,0.56757,33736,-80,0.64060,1
33352,-48,0.54630,33544,-192,0.60139,1
33384,32,0.56048,33656,112,0.62426,1
32952,-432,0.36907,33592,-64,0.61119,1
33384,432,0.56048,33528,-64,0.59812,1
33432,48,0.58175,33320,-208,0.55565,1
33624,192,0.66681,33640,320,0.62099,1
33304,-320,0.52503,32904,-736,0.47070,1
33336,32,0.53921,33256,352,0.54258,1
33352,16,0.54630,33304,48,0.55238,1
33256,-96,0.50377,33352,48,0.56218,1
33192,-64,0.47541,32984,-368,0.48703,1
33272,80,0.51086,32503,-481,0.38881,1
33032,-240,0.40452,33080,577,0.50664,1
33544,512,0.63137,33336,256,0.55891,1
33528,-16,0.62428,33288,-48,0.54911,1
33528,0,0.62428,33400,112,0.57198,1
33528,0,0.62428,33960,560,0.68634,1
33480,-48,0.60301,32776,-1184,0.44456,1
32808,-672,0.30527,33272,496,0.54584,1
33592,784,0.65264,33432,160,0.57852,1
33592,0,0.65264,33560,128,0.60466,1
33656,64,0.68099,33752,192,0.64386,1
33848,192,0.76606,33800,48,0.65367,1
33800,-48,0.74479,32824,-976,0.45436,1
33768,-32,0.73062,33672,848,0.62753,1
33736,-32,0.71644,33080,-592,0.50664,1
33688,-48,0.69517,33464,384,0.58505,1
33656,-32,0.68099,33960,496,0.68634,1
33768,112,0.73062,33048,-912,0.50010,1
33784,16,0.73770,33112,64,0.51317,1
33704,-80,0.70226,33480,368,0.58832,1
33560,-144,0.63846,33320,-160,0.55565,1
33608,48,0.65973,33144,-176,0.51971,1
33528,-80,0.62428,32535,-609,0.39534,1
33560,32,0.63846,32968,433,0.48377,1
33432,-128,0.58175,32727,-241,0.43455,1
33208,-224,0.48250,32391,-336,0.36594,1
33288,80,0.51794,32183,-208,0.32346,1
34376,1088,1.00000,33720,1537,0.63733,1
33992,-384,0.82986,34296,576,0.75495,1
33848,-144,0.76606,34328,32,0.76149,1
33848,0,0.76606,34584,256,0.81376,1
33832,-16,0.75897,34200,-384,0.73535,1
33768,-64,0.73062,34040,-160,0.70268,1
33944,176,0.80860,33832,-208,0.66020,1
33448,-496,0.58883,34008,176,0.69614,1
34040,592,0.85113,34328,320,0.76149,1
33912,-128,0.79442,34600,272,0.81703,1
33880,-32,0.78024,34856,256,0.86931,1
33896,16,0.78733,35128,272,0.92485,1
33960,64,0.81568,34312,-816,0.75822,1
33800,-160,0.74479,32407,-1905,0.36921,1
33416,-384,0.57466,31943,-464,0.27445,1
33704,288,0.70226,32087,144,0.30386,1
33544,-160,0.63137,32423,336,0.37247,1
33512,-32,0.61719,32663,240,0.42148,1
33592,80,0.65264,33080,417,0.50664,1
33816,224,0.75188,32904,-176,0.47070,1
33928,112,0.80151,33000,96,0.49030,1
33720,-208,0.70935,33272,272,0.54584,1
33896,176,0.78733,33624,352,0.61773,1
33544,-352,0.63137,33480,-144,0.58832,1
33192,-352,0.47541,33128,-352,0.51644,1
32968,-224,0.37616,33224,96,0.53604,1
33000,32,0.39034,33432,208,0.57852,1
32936,-64,0.36198,33128,-304,0.51644,1
32776,-160,0.29109,32583,-545,0.40515,1
32920,144,0.35490,33000,417,0.49030,1
33240,320,0.49668,33960,960,0.68634,1
33336,96,0.53921,33848,-112,0.66347,1
33432,96,0.58175,33960,112,0.68634,1
33240,-192,0.49668,33368,-592,0.56545,1
33032,-208,0.40452,33032,-336,0.49683,1
32808,-224,0.30527,31879,-1153,0.26138,1
33048,240,0.41161,32103,224,0.30713,1
33640,592,0.67390,33416,1313,0.57525,1
33768,128,0.73062,33896,480,0.67327,1
33864,96,0.77315,33816,-80,0.65693,1
33848,-16,0.76606,33752,-64,0.64386,1
33672,-176,0.68808,33416,-336,0.57525,1
33848,176,0.76606,33384,-32,0.56872,1
33864,16,0.77315,33208,-176,0.53278,1
33928,64,0.80151,33384,176,0.56872,1
33992,64,0.82986,33464,80,0.58505,1
33304,-688,0.52503,33400,-64,0.57198,1
33768,464,0.73062,33240,-160,0.53931,1
33512,-256,0.61719,33000,-240,0.49030,1
33688,176,0.69517,32487,-513,0.38554,1
33800,112,0.74479,32647,160,0.41822,1
33736,-64,0.71644,32952,305,0.48050,1
34328,592,0.97873,32231,-721,0.33327,1
33736,-592,0.71644,33432,1201,0.57852,1
33752,16,0.72353,33592,160,0.61119,1
33624,-128,0.66681,33800,208,0.65367,1
33624,0,0.66681,33816,16,0.65693,1
33544,-80,0.63137,33624,-192,0.61773,1
33592,48,0.65264,33592,-32,0.61119,1
33576,-16,0.64555,32936,-656,0.47723,1
33528,-48,0.62428,33848,912,0.66347,1
33480,-48,0.60301,34184,336,0.73208,1
33560,80,0.63846,34296,112,0.75495,1
33640,80,0.67390,34232,-64,0.74188,1
33816,176,0.75188,34408,176,0.77782,1
33832,16,0.75897,33944,-464,0.68307,1
33752,-80,0.72353,33912,-32,0.67654,1
33816,64,0.75188,33480,-432,0.58832,1
33768,-48,0.73062,33832,352,0.66020,1
33688,-80,0.69517,33800,-32,0.65367,1
33672,-16,0.68808,33480,-320,0.58832,1
33704,32,0.70226,33848,368,0.66347,1
33688,-16,0.69517,33944,96,0.68307,1
33624,-64,0.66681,33512,-432,0.59485,1
33624,0,0.66681,33224,-288,0.53604,1
33416,-208,0.57466,33560,336,0.60466,1
33256,-160,0.50377,32519,-1041,0.39208,1
33464,208,0.59592,33192,673,0.52951,1
33544,80,0.63137,32711,-481,0.43128,1
33624,80,0.66681,33208,497,0.53278,1
33720,96,0.70935,33848,640,0.66347,1
33704,-16,0.70226,33608,-240,0.61446,1
33544,-160,0.63137,32904,-704,0.47070,1
33608,64,0.65973,32792,-112,0.44783,1
33800,192,0.74479,33192,400,0.52951,1
33784,-16,0.73770,33400,208,0.57198,1
33736,-48,0.71644,33352,-48,0.56218,1
33768,32,0.73062,33016,-336,0.49357,1
33672,-96,0.68808,32727,-289,0.43455,1
33624,-48,0.66681,32663,-64,0.42148,1
33336,-288,0.53921,32711,48,0.43128,1
33176,-160,0.46832,32487,-224,0.38554,1
33352,176,0.54630,32295,-192,0.34633,1
33304,-48,0.52503,32567,272,0.40188,1
33240,-64,0.49668,32776,209,0.44456,1
33240,0,0.49668,32936,160,0.47723,1
33208,-32,0.48250,33064,128,0.50337,1
33272,64,0.51086,32567,-497,0.40188,1
33416,144,0.57466,33272,705,0.54584,1
33416,0,0.57466,32535,-737,0.39534,1
33480,64,0.60301,32567,32,0.40188,1
33592,112,0.65264,32455,-112,0.37901,1
33672,80,0.68808,32471,16,0.38227,1
33848,176,0.76606,32872,401,0.46416,1
33688,-160,0.69517,33224,352,0.53604,1
33816,128,0.75188,33720,496,0.63733,1
33752,-64,0.72353,33576,-144,0.60792,1
33752,0,0.72353,33480,-96,0.58832,1
33576,-176,0.64555,33512,32,0.59485,1
33512,-64,0.61719,33288,-224,0.54911,1
33464,-48,0.59592,32872,-416,0.46416,1
33560,96,0.63846,32615,-257,0.41168,1
33608,48,0.65973,33000,385,0.49030,1
33736,128,0.71644,32055,-945,0.29732,1
34136,400,0.89366,32215,160,0.33000,1
34312,176,0.97164,32535,320,0.39534,1
34056,-256,0.85822,32711,176,0.43128,1
34056,0,0.85822,33304,593,0.55238,1
33928,-128,0.80151,33608,304,0.61446,1
33560,-368,0.63846,33656,48,0.62426,1
33416,-144,0.57466,34104,448,0.71574,1
33512,96,0.61719,34600,496,0.81703,1
33368,-144,0.55339,35144,544,0.92812,1
33208,-160,0.48250,34232,-912,0.74188,1
33288,80,0.51794,33624,-608,0.61773,1
33448,160,0.58883,33832,208,0.66020,1
33272,-176,0.51086,33944,112,0.68307,1
33240,-32,0.49668,33848,-96,0.66347,1
33272,32,0.51086,33624,-224,0.61773,1
33320,48,0.53212,33736,112,0.64060,1
33256,-64,0.50377,33720,-16,0.63733,1
32984,-272,0.38325,33864,144,0.66673,1
32968,-16,0.37616,33640,-224,0.62099,1
32824,-144,0.31236,33576,-64,0.60792,1
32872,48,0.33363,32599,-977,0.40841,1
33256,384,0.50377,33512,913,0.59485,1
33224,-32,0.48959,33368,-144,0.56545,1
33160,-64,0.46123,32423,-945,0.37247,1
33176,16,0.46832,32936,513,0.47723,1
33096,-80,0.43288,32695,-241,0.42802,1
33384,288,0.56048,32599,-96,0.40841,1
33416,32,0.57466,33352,753,0.56218,1
33512,96,0.61719,32279,-1073,0.34307,1
33528,16,0.62428,32215,-64,0.33000,1
33592,64,0.65264,32103,-112,0.30713,1
33640,48,0.67390,32231,128,0.33327,1
33688,48,0.69517,32343,112,0.35614,1
33720,32,0.70935,32439,96,0.37574,1
34088,368,0.87240,32663,224,0.42148,1
33704,-384,0.70226,32583,-80,0.40515,1
33000,-704,0.39034,32279,-304,0.34307,1
33688,688,0.69517,32071,-208,0.30059,1
33752,64,0.72353,31799,-272,0.24505,1
33800,48,0.74479,31703,-96,0.22544,1
33912,112,0.79442,31735,32,0.23198,1
33528,-384,0.62428,30599,-1136,0.00000,1
33448,-80,0.58883,31799,1200,0.24505,1
33672,224,0.68808,32872,1073,0.46416,1
33688,16,0.69517,33288,416,0.54911,1
33656,-32,0.68099,33432,144,0.57852,1
33544,-112,0.63137,33240,-192,0.53931,1
33480,-64,0.60301,32776,-464,0.44456,1
33480,0,0.60301,32583,-193,0.40515,1
33656,176,0.68099,32247,-336,0.33653,1
33592,-64,0.65264,32199,-48,0.32673,1
33496,-96,0.61010,31911,-288,0.26792,1
33448,-48,0.58883,31495,-416,0.18297,1
33560,112,0.63846,31511,16,0.18624,1
33576,16,0.64555,31191,-320,0.12089,1
33512,-64,0.61719,32247,1056,0.33653,1
33528,16,0.62428,32039,-208,0.29406,1
33208,-320,0.48250,32279,240,0.34307,1
34040,832,0.85113,32519,240,0.39208,1
33496,-544,0.61010,32904,385,0.47070,1
33448,-48,0.58883,32679,-225,0.42475,1
33208,-240,0.48250,33304,625,0.55238,1
32840,-368,0.31945,33400,96,0.57198,1
33864,1024,0.77315,33208,-192,0.53278,1
33000,-864,0.39034,32904,-304,0.47070,1
33000,0,0.39034,33032,128,0.49683,1
33192,192,0.47541,33176,144,0.52624,1
33288,96,0.51794,33512,336,0.59485,1
33384,96,0.56048,33800,288,0.65367,1
33512,128,0.61719,33800,0,0.65367,1
33576,64,0.64555,33544,-256,0.60139,1
32952,-624,0.36907,33240,-304,0.53931,1
33528,576,0.62428,33384,144,0.56872,1
33416,-112,0.57466,33432,48,0.57852,1
33496,80,0.61010,33304,-128,0.55238,1
33416,-80,0.57466,33384,80,0.56872,1
33576,160,0.64555,33800,416,0.65367,1
33768,192,0.73062,33848,48,0.66347,1
33640,-128,0.67390,33608,-240,0.61446,1
33352,-288,0.54630,33224,-384,0.53604,1
33544,192,0.63137,33576,352,0.60792,1
33304,-240,0.52503,33032,-544,0.49683,1
33224,-80,0.48959,32824,-208,0.45436,1
32599,-625,0.21267,32567,-257,0.40188,1
33224,625,0.48959,32535,-32,0.39534,1
33384,160,0.56048,32711,176,0.43128,1
33544,160,0.63137,32856,145,0.46089,1
33496,-48,0.61010,32711,-145,0.43128,1
33304,-192,0.52503,32776,65,0.44456,1
33160,-144,0.46123,33144,368,0.51971,1
32679,-481,0.24812,32471,-673,0.38227,1
33240,561,0.49668,32743,272,0.43782,1
33064,-176,0.41870,32776,33,0.44456,1
33240,176,0.49668,32007,-769,0.28752,1
33336,96,0.53921,32776,769,0.44456,1
32567,-769,0.19849,32007,-769,0.28752,1
33048,481,0.41161,32679,672,0.42475,1
33080,32,0.42579,32776,97,0.44456,1
32952,-128,0.36907,32695,-81,0.42802,1
32856,-96,0.32654,32808,113,0.45109,1
33064,208,0.41870,32872,64,0.46416,1
33112,48,0.43996,33080,208,0.50664,1
33192,80,0.47541,33192,112,0.52951,1
33304,112,0.52503,33240,48,0.53931,1
33496,192,0.61010,33432,192,0.57852,1
33992,496,0.82986,33208,-224,0.53278,1
34248,256,0.94329,33320,112,0.55565,1
33864,-384,0.77315,33000,-320,0.49030,1
33992,128,0.82986,33048,48,0.50010,1
34024,32,0.84404,33352,304,0.56218,1
33704,-320,0.70226,32872,-480,0.46416,1
33112,-592,0.43996,33448,576,0.58178,1
33624,512,0.66681,33528,80,0.59812,1
33192,-432,0.47541,33368,-160,0.56545,1
33192,0,0.47541,33160,-208,0.52297,1
33464,272,0.59592,33256,96,0.54258,1
33640,176,0.67390,33944,688,0.68307,1
33208,-432,0.48250,33528,-416,0.59812,1
33192,-16,0.47541,32503,-1025,0.38881,1
32776,-416,0.29109,31927,-576,0.27119,1
32952,176,0.36907,33272,1345,0.54584,1
32824,-128,0.31236,33544,272,0.60139,1
32792,-32,0.29818,34408,864,0.77782,1
32776,-16,0.29109,33960,-448,0.68634,1
32872,96,0.33363,34104,144,0.71574,1
33048,176,0.41161,33816,-288,0.65693,1
33208,160,0.48250,33624,-192,0.61773,1
33000,-208,0.39034,33464,-160,0.58505,1
33208,208,0.48250,33560,96,0.60466,1
33288,80,0.51794,33368,-192,0.56545,1
33432,144,0.58175,33224,-144,0.53604,1
33400,-32,0.56757,33208,-16,0.53278,1
33320,-80,0.53212,33272,64,0.54584,1
33256,-64,0.50377,33032,-240,0.49683,1
33192,-64,0.47541,32968,-64,0.48377,1
33336,144,0.53921,32984,16,0.48703,1
32455,-881,0.14887,32952,-32,0.48050,1
33128,673,0.44705,32808,-144,0.45109,1
33208,80,0.48250,32663,-145,0.42148,1
33112,-96,0.43996,32711,48,0.43128,1
33128,16,0.44705,32375,-336,0.36267,1
32952,-176,0.36907,32151,-224,0.31693,1
32856,-96,0.32654,31719,-432,0.22871,1
33128,272,0.44705,32135,416,0.31366,1
32936,-192,0.36198,32599,464,0.40841,1
33192,256,0.47541,32583,-16,0.40515,1
33368,176,0.55339,32776,193,0.44456,1
33496,128,0.61010,32840,64,0.45763,1
33336,-160,0.53921,32695,-145,0.42802,1
33224,-112,0.48959,32423,-272,0.37247,1
33208,-16,0.48250,32375,-48,0.36267,1
33240,32,0.49668,32487,112,0.38554,1
33208,-32,0.48250,32407,-80,0.36921,1
33160,-48,0.46123,32167,-240,0.32020,1
33048,-112,0.41161,32279,112,0.34307,1
33096,48,0.43288,31783,-496,0.24178,1
33240,144,0.49668,32103,320,0.30713,1
33288,48,0.51794,31831,-272,0.25158,1
33032,-256,0.40452,30967,-864,0.07515,1
33064,32,0.41870,30919,-48,0.06535,1
33928,864,0.80151,32023,1104,0.29079,1
33656,-272,0.68099,32888,865,0.46743,1
33672,16,0.68808,33048,160,0.50010,1
33528,-144,0.62428,33384,336,0.56872,1
33432,-96,0.58175,33256,-128,0.54258,1
33528,96,0.62428,33128,-128,0.51644,1
33336,-192,0.53921,33096,-32,0.50990,1
33288,-48,0.51794,32920,-176,0.47396,1
33192,-96,0.47541,32679,-241,0.42475,1
33064,-128,0.41870,32375,-304,0.36267,1
32920,-144,0.35490,32039,-336,0.29406,1
33096,176,0.43288,32471,432,0.38227,1
33336,240,0.53921,33112,641,0.51317,1
33016,-320,0.39743,32872,-240,0.46416,1
33320,304,0.53212,32808,-64,0.45109,1
33240,-80,0.49668,33032,224,0.49683,1
33160,-80,0.46123,33064,32,0.50337,1
33048,-112,0.41161,33096,32,0.50990,1
32984,-64,0.38325,33048,-48,0.50010,1
32888,-96,0.34072,32776,-272,0.44456,1
33032,144,0.40452,33272,496,0.54584,1
33288,256,0.51794,33352,80,0.56218,1
33352,64,0.54630,33800,448,0.65367,1
33352,0,0.54630,33960,160,0.68634,1
33208,-144,0.48250,33992,32,0.69287,1
33256,48,0.50377,33544,-448,0.60139,1
33528,272,0.62428,33816,272,0.65693,1
33336,-192,0.53921,33592,-224,0.61119,1
33352,16,0.54630,33704,112,0.63406,1
33288,-64,0.51794,33688,-16,0.63079,1
33336,48,0.53921,33768,80,0.64713,1
33192,-144,0.47541,34040,272,0.70268,1
33400,208,0.56757,34392,352,0.77456,1
33288,-112,0.51794,33688,-704,0.63079,1
33256,-32,0.50377,33368,-320,0.56545,1
33224,-32,0.48959,32679,-689,0.42475,1
33256,32,0.50377,32423,-256,0.37247,1
33288,32,0.51794,32071,-352,0.30059,1
33416,128,0.57466,32391,320,0.36594,1
33944,528,0.80860,32471,80,0.38227,1
33416,-528,0.57466,32567,96,0.40188,1
32984,-432,0.38325,32279,-288,0.34307,1
33240,256,0.49668,32952,673,0.48050,1
33304,64,0.52503,32679,-273,0.42475,1
32808,-496,0.30527,31895,-784,0.26465,1
33064,256,0.41870,31319,-576,0.14703,1
33352,288,0.54630,31463,144,0.17643,1
33368,16,0.55339,32231,768,0.33327,1
33432,64,0.58175,32007,-224,0.28752,1
33368,-64,0.55339,32279,272,0.34307,1
33368,0,0.55339,32247,-32,0.33653,1
33480,112,0.60301,32407,160,0.36921,1
33720,240,0.70935,31959,-448,0.27772,1
33704,-16,0.70226,30807,-1152,0.04247,1
33864,160,0.77315,30855,48,0.05228,1
33976,112,0.82277,32439,1584,0.37574,1
33832,-144,0.75897,32679,240,0.42475,1
33640,-192,0.67390,32984,305,0.48703,1
33448,-192,0.58883,32663,-321,0.42148,1
33080,-368,0.42579,31943,-720,0.27445,1
32487,-593,0.16305,31735,-208,0.23198,1
33064,577,0.41870,32039,304,0.29406,1
32904,-160,0.34781,32343,304,0.35614,1
32952,48,0.36907,32631,288,0.41495,1
32936,-16,0.36198,32583,-48,0.40515,1
33032,96,0.40452,32247,-336,0.33653,1
32615,-417,0.21976,32327,80,0.35287,1
32952,337,0.36907,32471,144,0.38227,1
33384,432,0.56048,32615,144,0.41168,1
33192,-192,0.47541,32311,-304,0.34960,1
33128,-64,0.44705,32103,-208,0.30713,1
33128,0,0.44705,32151,48,0.31693,1
33176,48,0.46832,33352,1201,0.56218,1
33048,-128,0.41161,32695,-657,0.42802,1
33064,16,0.41870,33160,465,0.52297,1
33080,16,0.42579,32968,-192,0.48377,1
33176,96,0.46832,32615,-353,0.41168,1
33288,112,0.51794,32471,-144,0.38227,1
33368,80,0.55339,32904,433,0.47070,1
33368,0,0.55339,33192,288,0.52951,1
33240,-128,0.49668,32327,-865,0.35287,1
32824,-416,0.31236,31959,-368,0.27772,1
33224,400,0.48959,32359,400,0.35940,1
33240,16,0.49668,33496,1137,0.59159,1
33400,160,0.56757,33912,416,0.67654,1
33448,48,0.58883,34104,192,0.71574,1
33560,112,0.63846,32840,-1264,0.45763,1
33432,-128,0.58175,32519,-321,0.39208,1
33512,80,0.61719,32856,337,0.46089,1
33128,-384,0.44705,32647,-209,0.41822,1
33128,0,0.44705,32679,32,0.42475,1
33080,-48,0.42579,33032,353,0.49683,1
33176,96,0.46832,33144,112,0.51971,1
32776,-400,0.29109,33208,64,0.53278,1
33544,768,0.63137,33256,48,0.54258,1
33624,80,0.66681,33240,-16,0.53931,1
33800,176,0.74479,33016,-224,0.49357,1
34136,336,0.89366,32920,-96,0.47396,1
33448,-688,0.58883,32904,-16,0.47070,1
33560,112,0.63846,33064,160,0.50337,1
33624,64,0.66681,32551,-513,0.39861,1
33320,-304,0.53212,32615,64,0.41168,1
33240,-80,0.49668,32471,-144,0.38227,1
33400,160,0.56757,32535,64,0.39534,1
33224,-176,0.48959,32295,-240,0.34633,1
33208,-16,0.48250,32952,657,0.48050,1
32407,-801,0.12760,32343,-609,0.35614,1
33176,769,0.46832,32615,272,0.41168,1
33144,-32,0.45414,32407,-208,0.36921,1
33160,16,0.46123,32407,0,0.36921,1
33112,-48,0.43996,32263,-144,0.33980,1
33032,-80,0.40452,32439,176,0.37574,1
33416,384,0.57466,32583,144,0.40515,1
33272,-144,0.51086,32872,289,0.46416,1
33112,-160,0.43996,32695,-177,0.42802,1
33080,-32,0.42579,32647,-48,0.41822,1
33096,16,0.43288,32071,-576,0.30059,1
33016,-80,0.39743,31751,-320,0.23525,1
32936,-80,0.36198,31831,80,0.25158,1
32711,-225,0.26230,32119,288,0.31039,1
32695,-16,0.25521,31975,-144,0.28099,1
32679,-16,0.24812,31815,-160,0.24832,1
32808,129,0.30527,32023,208,0.29079,1
33368,560,0.55339,32199,176,0.32673,1
32808,-560,0.30527,32103,-96,0.30713,1
32872,64,0.33363,31975,-128,0.28099,1
32776,-96,0.29109,31127,-848,0.10782,1
32567,-209,0.19849,30743,-384,0.02941,1
32792,225,0.29818,31303,560,0.14376,1
33224,432,0.48959,32007,704,0.28752,1
33064,-160,0.41870,31863,-144,0.25812,1
32952,-112,0.36907,31991,128,0.28426,1
33048,96,0.41161,32023,32,0.29079,1
32904,-144,0.34781,32936,913,0.47723,1
33080,176,0.42579,31511,-1425,0.18624,1
32904,-176,0.34781,31847,336,0.25485,1
32776,-128,0.29109,31911,64,0.26792,1
32840,64,0.31945,32359,448,0.35940,1
32824,-16,0.31236,32407,48,0.36921,1
32808,-16,0.30527,32119,-288,0.31039,1
32727,-81,0.26938,32647,528,0.41822,1
32840,113,0.31945,32391,-256,0.36594,1
32952,112,0.36907,31767,-624,0.23851,1
32888,-64,0.34072,32263,496,0.33980,1
33608,720,0.65973,32247,-16,0.33653,1
32856,-752,0.32654,32727,480,0.43455,1
32840,-16,0.31945,32936,209,0.47723,1
32119,-721,0.00000,33032,96,0.49683,1
33640,1521,0.67390,33384,352,0.56872,1
33096,-544,0.43288,33400,16,0.57198,1
33128,32,0.44705,33288,-112,0.54911,1
32984,-144,0.38325,33432,144,0.57852,1
33128,144,0.44705,33464,32,0.58505,1
33032,-96,0.40452,33464,0,0.58505,1
32663,-369,0.24103,33336,-128,0.55891,1
33112,449,0.43996,33064,-272,0.50337,1
33128,16,0.44705,32487,-577,0.38554,1
33208,80,0.48250,32631,144,0.41495,1
33304,96,0.52503,32776,145,0.44456,1
33064,-240,0.41870,32663,-113,0.42148,1
32519,-545,0.17723,32727,64,0.43455,1
32824,305,0.31236,32824,97,0.45436,1
32856,32,0.32654,32792,-32,0.44783,1
33192,0,0.43938,36488,0,0.74244,0
33208,16,0.44096,37177,689,0.79653,0
34632,1424,0.58109,38713,1536,0.91710,0
35272,640,0.64407,38921,208,0.93343,0
36136,864,0.72909,37945,-976,0.85682,0
36264,128,0.74168,37385,-560,0.81286,0
35848,-416,0.70075,37641,256,0.83295,0
35608,-240,0.67713,37049,-592,0.78648,0
35688,80,0.68500,36296,-753,0.72737,0
35176,-512,0.63462,36328,32,0.72988,0
33000,-2176,0.42049,35320,-1008,0.65076,0
32952,-48,0.41576,32519,-2801,0.43088,0
31335,-1617,0.25664,31175,-1344,0.32538,0
30423,-912,0.16690,30343,-832,0.26007,0
30871,448,0.21098,30647,304,0.28393,0
31831,960,0.30545,31959,1312,0.38692,0
32519,688,0.37315,31511,-448,0.35175,0
33496,977,0.46930,32551,1040,0.43339,0
33992,496,0.51811,33560,1009,0.51260,0
33608,-384,0.48032,35512,1952,0.66583,0
33272,-336,0.44725,36088,576,0.71104,0
33384,112,0.45828,36921,833,0.77643,0
33576,192,0.47717,37609,688,0.83044,0
33528,-48,0.47245,37913,304,0.85431,0
33944,416,0.51338,37065,-848,0.78774,0
34872,928,0.60470,35624,-1441,0.67462,0
36664,1792,0.78105,33832,-1792,0.53395,0
36776,112,0.79207,32199,-1633,0.40576,0
36040,-736,0.71964,30727,-1472,0.29021,0
34424,-1616,0.56062,31399,672,0.34296,0
33368,-1056,0.45670,31863,464,0.37939,0
33256,-112,0.44568,32583,720,0.43591,0
32631,-625,0.38418,33240,657,0.48748,0
32023,-608,0.32435,34184,944,0.56158,0
32311,288,0.35269,34664,480,0.59926,0
33064,753,0.42679,34472,-192,0.58419,0
34232,1168,0.54172,34232,-240,0.56535,0
32359,-1873,0.35741,34392,160,0.57791,0
30903,-1456,0.21413,35176,784,0.63945,0
30087,-816,0.13383,34824,-352,0.61182,0
29975,-112,0.12281,33384,-1440,0.49878,0
30167,192,0.14170,32808,-576,0.45357,0
30695,528,0.19366,34296,1488,0.57037,0
30855,160,0.20941,34904,608,0.61810,0
31271,416,0.25034,35016,112,0.62689,0
31271,0,0.25034,35192,176,0.64071,0
31367,96,0.25979,35464,272,0.66206,0
32519,1152,0.37315,37033,1569,0.78523,0
34136,1617,0.53228,35688,-1345,0.67965,0
35304,1168,0.64722,34888,-800,0.61685,0
36664,1360,0.78105,35112,224,0.63443,0
36696,32,0.78420,34536,-576,0.58921,0
36200,-496,0.73539,34248,-288,0.56661,0
34936,-1264,0.61100,33880,-368,0.53772,0
33144,-1792,0.43466,34200,320,0.56284,0
32567,-577,0.37788,34024,-176,0.54902,0
33432,865,0.46300,34632,608,0.59675,0
32888,-544,0.40947,35144,512,0.63694,0
33432,544,0.46300,34392,-752,0.57791,0
32840,-592,0.40474,34296,-96,0.57037,0
32695,-145,0.39047,33880,-416,0.53772,0
32247,-448,0.34639,33160,-720,0.48120,0
32343,96,0.35584,32647,-513,0.44093,0
32151,-192,0.33694,33080,433,0.47492,0
32391,240,0.36056,33448,368,0.50381,0
32247,-144,0.34639,34008,560,0.54777,0
31143,-1104,0.23775,34088,80,0.55405,0
30839,-304,0.20783,34552,464,0.59047,0
31559,720,0.27869,35880,1328,0.69472,0
30391,-1168,0.16375,36424,544,0.73742,0
30807,416,0.20468,36792,368,0.76631,0
31543,736,0.27711,37577,785,0.82793,0
32439,896,0.36528,38505,928,0.90078,0
34472,2033,0.56534,39065,560,0.94474,0
35352,880,0.65194,35944,-3121,0.69974,0
35848,496,0.70075,33272,-2672,0.48999,0
36760,912,0.79049,31831,-1441,0.37687,0
38553,1793,0.96694,31047,-784,0.31533,0
38889,336,1.00000,30647,-400,0.28393,0
36953,-1936,0.80949,31895,1248,0.38190,0
34136,-2817,0.53228,34872,2977,0.61559,0
31991,-2145,0.32120,37321,2449,0.80783,0
31815,-176,0.30388,38073,752,0.86687,0
31255,-560,0.24877,38377,304,0.89073,0
30327,-928,0.15745,37753,-624,0.84175,0
30647,320,0.18894,36921,-832,0.77643,0
30727,80,0.19681,36424,-497,0.73742,0
30567,-160,0.18107,35256,-1168,0.64573,0
29703,-864,0.09604,33496,-1760,0.50758,0
29575,-128,0.08345,33384,-112,0.49878,0
30199,624,0.14485,34184,800,0.56158,0
30279,80,0.15273,33960,-224,0.54400,0
31191,912,0.24247,33976,16,0.54525,0
32375,1184,0.35898,33816,-160,0.53269,0
32359,-16,0.35741,33720,-96,0.52516,0
32679,320,0.38890,33688,-32,0.52265,0
33608,929,0.48032,33544,-144,0.51134,0
34504,896,0.56849,33368,-176,0.49753,0
34136,-368,0.53228,33432,64,0.50255,0
33048,-1088,0.42521,33400,-32,0.50004,0
33736,688,0.49291,33096,-304,0.47618,0
33864,128,0.50551,31959,-1137,0.38692,0
34264,400,0.54487,31623,-336,0.36055,0
34808,544,0.59841,32711,1088,0.44595,0
34888,80,0.60628,33800,1089,0.53144,0
36376,1488,0.75271,33304,-496,0.49250,0
37337,961,0.84727,32551,-753,0.43339,0
37049,-288,0.81893,34088,1537,0.55405,0
36760,-289,0.79049,35400,1312,0.65704,0
35096,-1664,0.62675,36953,1553,0.77895,0
34232,-864,0.54172,38073,1120,0.86687,0
32872,-1360,0.40789,38745,672,0.91962,0
33736,864,0.49291,39769,1024,1.00000,0
33320,-416,0.45198,39241,-528,0.95855,0
31639,-1681,0.28656,36344,-2897,0.73114,0
31383,-256,0.26137,34264,-2080,0.56786,0
31639,256,0.28656,32856,-1408,0.45734,0
32103,464,0.33222,30887,-1969,0.30277,0
32311,208,0.35269,30183,-704,0.24751,0
32359,48,0.35741,29911,-272,0.22616,0
32727,368,0.39362,29511,-400,0.19476,0
33416,689,0.46142,29575,64,0.19978,0
33512,96,0.47087,29591,16,0.20104,0
34984,1472,0.61573,30823,1232,0.29775,0
34760,-224,0.59368,32359,1536,0.41832,0
34152,-608,0.53385,34936,2577,0.62061,0
33256,-896,0.44568,35176,240,0.63945,0
31399,-1857,0.26294,34152,-1024,0.55907,0
30759,-640,0.19996,34008,-144,0.54777,0
29431,-1328,0.06928,33768,-240,0.52893,0
28727,-704,0.00000,33960,192,0.54400,0
29863,1136,0.11179,34456,496,0.58293,0
30071,208,0.13226,35064,608,0.63066,0
30727,656,0.19681,36248,1184,0.72360,0
31527,800,0.27554,36120,-128,0.71356,0
31639,112,0.28656,35592,-528,0.67211,0
31543,-96,0.27711,34904,-688,0.61810,0
31143,-400,0.23775,33672,-1232,0.52139,0
31607,464,0.28341,34440,768,0.58168,0
31847,240,0.30703,34936,496,0.62061,0
32359,512,0.35741,35464,528,0.66206,0
34296,1937,0.54802,35208,-256,0.64197,0
34968,672,0.61415,34024,-1184,0.54902,0
35016,48,0.61887,33784,-240,0.53018,0
34600,-416,0.57794,35112,1328,0.63443,0
34552,-48,0.57321,34712,-400,0.60303,0
34920,368,0.60943,35480,768,0.66332,0
36024,1104,0.71807,35608,128,0.67337,0
36184,160,0.73381,34952,-656,0.62187,0
34920,-1264,0.60943,34392,-560,0.57791,0
34872,-48,0.60470,35512,1120,0.66583,0
34776,-96,0.59526,34312,-1200,0.57163,0
35352,576,0.65194,33992,-320,0.54651,0
34184,-1168,0.53700,33800,-192,0.53144,0
33048,-1136,0.42521,33144,-656,0.47994,0
32439,-609,0.36528,32119,-1025,0.39948,0
33384,945,0.45828,31415,-704,0.34422,0
33464,80,0.46615,31895,480,0.38190,0
33016,-448,0.42206,31495,-400,0.35050,0
31687,-1329,0.29128,31271,-224,0.33291,0
30663,-1024,0.19051,32647,1376,0.44093,0
30615,-48,0.18579,34472,1825,0.58419,0
31111,496,0.23460,36360,1888,0.73240,0
31527,416,0.27554,38249,1889,0.88068,0
32359,832,0.35741,37577,-672,0.82793,0
32904,545,0.41104,35656,-1921,0.67713,0
32631,-273,0.38418,35032,-624,0.62815,0
32711,80,0.39205,34280,-752,0.56912,0
31431,-1280,0.26609,33480,-800,0.50632,0
30327,-1104,0.15745,34152,672,0.55907,0
29895,-432,0.11494,34616,464,0.59549,0
30871,976,0.21098,34056,-560,0.55153,0
32087,1216,0.33064,35128,1072,0.63569,0
33928,1841,0.51181,34312,-816,0.57163,0
34392,464,0.55747,33608,-704,0.51637,0
32647,-1745,0.38575,35560,1952,0.66960,0
32311,-336,0.35269,36776,1216,0.76505,0
33896,1585,0.50866,37993,1217,0.86059,0
34680,784,0.58581,37081,-912,0.78899,0
34104,-576,0.52913,35352,-1729,0.65327,0
33208,-896,0.44096,33352,-2000,0.49627,0
32936,-272,0.41419,31623,-1729,0.36055,0
32599,-337,0.38103,29815,-1808,0.21862,0
33448,849,0.46457,28150,-1665,0.08792,0
34232,784,0.54172,27030,-1120,0.00000,0
34088,-144,0.52755,27334,304,0.02386,0
33224,-864,0.44253,28246,912,0.09545,0
31911,-1313,0.31332,31111,2865,0.32035,0
30983,-928,0.22200,33448,2337,0.50381,0
31111,128,0.23460,34728,1280,0.60429,0
31671,560,0.28971,34968,240,0.62313,0
32007,336,0.32277,34312,-656,0.57163,0
32199,192,0.34167,34168,-144,0.56033,0
32984,785,0.41891,32423,-1745,0.42335,0
32311,-673,0.35269,32311,-112,0.41455,0
31543,-768,0.27711,32423,112,0.42335,0
31191,-352,0.24247,32183,-240,0.40451,0
30791,-400,0.20311,32792,609,0.45231,0
30087,-704,0.13383,33560,768,0.51260,0
30647,560,0.18894,35208,1648,0.64197,0
32263,1616,0.34796,36889,1681,0.77392,0
32727,464,0.39362,38345,1456,0.88822,0
34136,1409,0.53228,38601,256,0.90831,0
35432,1296,0.65981,37225,-1376,0.80030,0
36136,704,0.72909,34744,-2481,0.60554,0
35912,-224,0.70705,34104,-640,0.55530,0
35304,-608,0.64722,32840,-1264,0.45608,0
35144,-160,0.63147,34056,1216,0.55153,0
35048,-96,0.62202,34472,416,0.58419,0
34776,-272,0.59526,35688,1216,0.67965,0
33992,-784,0.51811,36552,864,0.74747,0
33224,-768,0.44253,36024,-528,0.70602,0
33544,320,0.47402,35128,-896,0.63569,0
33000,-544,0.42049,33736,-1392,0.52641,0
33304,304,0.45040,33544,-192,0.51134,0
34232,928,0.54172,33848,304,0.53521,0
33800,-432,0.49921,33848,0,0.53521,0
33032,-768,0.42364,32776,-1072,0.45106,0
32263,-769,0.34796,32103,-673,0.39823,0
30919,-1344,0.21571,31479,-624,0.34924,0
30279,-640,0.15273,31447,-32,0.34673,0
30727,448,0.19681,33176,1729,0.48246,0
30839,112,0.20783,34008,832,0.54777,0
31879,1040,0.31018,34008,0,0.54777,0
32968,1089,0.41734,35368,1360,0.65453,0
34616,1648,0.57951,36424,1056,0.73742,0
34280,-336,0.54645,35176,-1248,0.63945,0
34376,96,0.55589,34584,-592,0.59298,0
34472,96,0.56534,33496,-1088,0.50758,0
34488,16,0.56692,31815,-1681,0.37562,0
35704,1216,0.68658,29143,-2672,0.16587,0
34568,-1136,0.57479,27830,-1313,0.06280,0
34264,-304,0.54487,27670,-160,0.05024,0
33176,-1088,0.43781,28550,880,0.11932,0
31527,-1649,0.27554,30263,1713,0.25379,0
31383,-144,0.26137,31815,1552,0.37562,0
31783,400,0.30073,32039,224,0.39320,0
31735,-48,0.29600,31447,-592,0.34673,0
31799,64,0.30230,31799,352,0.37436,0
31351,-448,0.25822,33912,2113,0.54023,0
29879,-1472,0.11336,35032,1120,0.62815,0
29063,-816,0.03306,36728,1696,0.76128,0
29639,576,0.08975,37385,657,0.81286,0
30695,1056,0.19366,37225,-160,0.80030,0
31431,736,0.26609,36008,-1217,0.70476,0
31703,272,0.29286,35176,-832,0.63945,0
30919,-784,0.21571,34120,-1056,0.55656,0
30823,-96,0.20626,33096,-1024,0.47618,0
32039,1216,0.32592,31959,-1137,0.38692,0
32695,656,0.39047,31319,-640,0.33668,0
32327,-368,0.35426,31191,-128,0.32663,0
32311,-16,0.35269,31415,224,0.34422,0
32695,384,0.39047,31975,560,0.38818,0
33336,641,0.45355,32599,624,0.43716,0
34136,800,0.53228,32920,321,0.46236,0
34888,752,0.60628,33608,688,0.51637,0
35144,256,0.63147,33928,320,0.54149,0
35752,608,0.69130,33608,-320,0.51637,0
36104,352,0.72594,32215,-1393,0.40702,0
35608,-496,0.67713,29831,-2384,0.21988,0
34344,-1264,0.55275,28823,-1008,0.14075,0
35000,656,0.61730,28230,-593,0.09420,0
35672,672,0.68343,28086,-144,0.08290,0
35912,240,0.70705,27798,-288,0.06029,0
34680,-1232,0.58581,28887,1089,0.14577,0
33944,-736,0.51338,29079,192,0.16084,0
32679,-1265,0.38890,30983,1904,0.31031,0
32824,145,0.40317,32840,1857,0.45608,0
31447,-1377,0.26766,33800,960,0.53144,0
31031,-416,0.22673,34376,576,0.57665,0
31223,192,0.24562,34776,400,0.60805,0
31831,608,0.30545,34360,-416,0.57540,0
33080,1249,0.42836,33528,-832,0.51009,0
34232,1152,0.54172,32727,-801,0.44721,0
34328,96,0.55117,31271,-1456,0.33291,0
33768,-560,0.49606,30679,-592,0.28644,0
32808,-960,0.40159,31271,592,0.33291,0
32311,-497,0.35269,32311,1040,0.41455,0
32167,-144,0.33852,33864,1553,0.53646,0
32551,384,0.37630,34888,1024,0.61685,0
32583,32,0.37945,35816,928,0.68969,0
32920,337,0.41262,35928,112,0.69848,0
32904,-16,0.41104,35432,-496,0.65955,0
33112,208,0.43151,35080,-352,0.63192,0
33896,784,0.50866,34712,-368,0.60303,0
34680,784,0.58581,35352,640,0.65327,0
34616,-64,0.57951,35304,-48,0.64950,0
34456,-160,0.56377,35656,352,0.67713,0
33736,-720,0.49291,34360,-1296,0.57540,0
32535,-1201,0.37473,34184,-176,0.56158,0
32119,-416,0.33379,34840,656,0.61308,0
31191,-928,0.24247,35304,464,0.64950,0
31079,-112,0.23145,35768,464,0.68593,0
30551,-528,0.17949,35560,-208,0.66960,0
30215,-336,0.14643,35352,-208,0.65327,0
29991,-224,0.12438,36264,912,0.72486,0
30551,560,0.17949,36776,512,0.76505,0
32199,1648,0.34167,37561,785,0.82667,0
33496,1297,0.46930,36200,-1361,0.71984,0
33672,176,0.48662,34408,-1792,0.57917,0
32936,-736,0.41419,33128,-1280,0.47869,0
32792,-144,0.40002,31927,-1201,0.38441,0
32856,64,0.40632,32872,945,0.45859,0
33224,368,0.44253,33160,288,0.48120,0
33528,304,0.47245,32920,-240,0.46236,0
34056,528,0.52440,33432,512,0.50255,0
33960,-96,0.51496,32343,-1089,0.41707,0
33864,-96,0.50551,31447,-896,0.34673,0
34232,368,0.54172,30823,-624,0.29775,0
34296,64,0.54802,30519,-304,0.27388,0
34472,176,0.56534,31239,720,0.33040,0
35032,560,0.62045,32231,992,0.40827,0
34808,-224,0.59841,32327,96,0.41581,0
35000,192,0.61730,31879,-448,0.38064,0
35800,800,0.69602,31543,-336,0.35427,0
35160,-640,0.63304,30711,-832,0.28896,0
34632,-528,0.58109,29943,-768,0.22867,0
34184,-448,0.53700,30023,80,0.23495,0
33800,-384,0.49921,29143,-880,0.16587,0
32888,-912,0.40947,29095,-48,0.16210,0
31399,-1489,0.26294,29591,496,0.20104,0
31111,-288,0.23460,31159,1568,0.32412,0
31863,752,0.30860,32359,1200,0.41832,0
32471,608,0.36843,32295,-64,0.41330,0
32343,-128,0.35584,31015,-1280,0.31282,0
32007,-336,0.32277,29847,-1168,0.22113,0
32423,416,0.36371,28582,-1265,0.12183,0
32103,-320,0.33222,29351,769,0.18220,0
31799,-304,0.30230,29111,-240,0.16336,0
31943,144,0.31647,28502,-609,0.11555,0
31975,32,0.31962,27846,-656,0.06406,0
32231,256,0.34481,27622,-224,0.04647,0
32407,176,0.36213,27590,-32,0.04396,0
32840,433,0.40474,27798,208,0.06029,0
32599,-241,0.38103,28054,256,0.08038,0
32263,-336,0.34796,28566,512,0.12057,0
32663,400,0.38733,31015,2449,0.31282,0
32487,-176,0.37001,32231,1216,0.40827,0
32631,144,0.38418,32135,-96,0.40074,0
34360,1729,0.55432,32679,544,0.44344,0
34776,416,0.59526,32391,-288,0.42083,0
33480,-1296,0.46772,33208,817,0.48497,0
32151,-1329,0.33694,34264,1056,0.56786,0
31367,-784,0.25979,34312,48,0.57163,0
31207,-160,0.24405,33832,-480,0.53395,0
32087,880,0.33064,33352,-480,0.49627,0
33448,1361,0.46457,32343,-1009,0.41707,0
33768,320,0.49606,31111,-1232,0.32035,0
33128,-640,0.43308,31207,96,0.32789,0
32727,-401,0.39362,32679,1472,0.44344,0
33256,529,0.44568,34024,1345,0.54902,0
33512,256,0.47087,33896,-128,0.53897,0
33928,416,0.51181,33432,-464,0.50255,0
33704,-224,0.48977,32583,-849,0.43591,0
33704,0,0.48977,32359,-224,0.41832,0
33000,-704,0.42049,33224,865,0.48622,0
33000,0,0.42049,34088,864,0.55405,0
34520,1520,0.57006,34296,208,0.57037,0
36184,1664,0.73381,34248,-48,0.56661,0
35912,-272,0.70705,33720,-528,0.52516,0
36856,944,0.79994,31959,-1761,0.38692,0
36408,-448,0.75586,29959,-2000,0.22992,0
35016,-1392,0.61887,29415,-544,0.18722,0
34056,-960,0.52440,30391,976,0.26384,0
33336,-720,0.45355,29879,-512,0.22364,0
31895,-1441,0.31175,29639,-240,0.20480,0
31239,-656,0.24720,29895,256,0.22490,0
30631,-608,0.18736,31271,1376,0.33291,0
30727,96,0.19681,31303,32,0.33543,0
32151,1424,0.33694,30807,-496,0.29649,0
32631,480,0.38418,29719,-1088,0.21108,0
33544,913,0.47402,29527,-192,0.19601,0
33576,32,0.47717,29031,-496,0.15708,0
34152,576,0.53385,31399,2368,0.34296,0
34632,480,0.58109,32936,1537,0.46362,0
34168,-464,0.53543,33592,656,0.51511,0
32808,-1360,0.40159,35240,1648,0.64448,0
30967,-1841,0.22043,34728,-512,0.60429,0
29863,-1104,0.11179,33096,-1632,0.47618,0
30295,432,0.15430,31895,-1201,0.38190,0
31447,1152,0.26766,32359,464,0.41832,0
32327,880,0.35426,33288,929,0.49125,0
32888,561,0.40947,33256,-32,0.48874,0
32904,16,0.41104,32375,-881,0.41958,0
33288,384,0.44883,31671,-704,0.36431,0
33720,432,0.49134,30679,-992,0.28644,0
34152,432,0.53385,30135,-544,0.24374,0
34824,672,0.59998,29527,-608,0.19601,0
35240,416,0.64092,28070,-1457,0.08164,0
35736,496,0.68973,27654,-416,0.04898,0
36744,1008,0.78892,28502,848,0.11555,0
36728,-16,0.78734,29383,881,0.18471,0
34728,-2000,0.59053,31399,2016,0.34296,0
33736,-992,0.49291,34232,2833,0.56535,0
33896,160,0.50866,35864,1632,0.69346,0
32343,-1553,0.35584,36584,720,0.74998,0
30951,-1392,0.21885,37353,769,0.81035,0
30711,-240,0.19524,36760,-593,0.76380,0
30663,-48,0.19051,36280,-480,0.72612,0
30935,272,0.21728,35896,-384,0.69597,0
31399,464,0.26294,35176,-720,0.63945,0
32135,736,0.33537,33576,-1600,0.51386,0
32343,208,0.35584,32295,-1281,0.41330,0
32695,352,0.39047,30551,-1744,0.27640,0
33192,497,0.43938,29095,-1456,0.16210,0
33784,592,0.49764,28310,-785,0.10048,0
34344,560,0.55275,28454,144,0.11178,0
34440,96,0.56219,28166,-288,0.08917,0
34216,-224,0.54015,28679,513,0.12945,0
34552,336,0.57321,29655,976,0.20606,0
34776,224,0.59526,29911,256,0.22616,0
34232,-544,0.54172,29767,-144,0.21485,0
33160,-1072,0.43623,30391,624,0.26384,0
32824,-336,0.40317,31047,656,0.31533,0
32776,-48,0.39845,31399,352,0.34296,0
32631,-145,0.38418,31959,560,0.38692,0
32247,-384,0.34639,32087,128,0.39697,0
32135,-112,0.33537,32423,336,0.42335,0
31959,-176,0.31805,32776,353,0.45106,0
31895,-64,0.31175,32968,192,0.46613,0
32583,688,0.37945,33064,96,0.47366,0
33736,1153,0.49291,32295,-769,0.41330,0
33928,192,0.51181,31031,-1264,0.31407,0
34104,176,0.52913,30007,-1024,0.23369,0
34792,688,0.59683,29943,-64,0.22867,0
34568,-224,0.57479,30231,288,0.25128,0
33272,-1296,0.44725,31063,832,0.31659,0
31719,-1553,0.29443,32199,1136,0.40576,0
30535,-1184,0.17792,32727,528,0.44721,0
30503,-32,0.17477,33048,321,0.47241,0
31607,1104,0.28341,34152,1104,0.55907,0
32487,880,0.37001,35160,1008,0.63820,0
32631,144,0.38418,37049,1889,0.78648,0
32920,289,0.41262,35352,-1697,0.65327,0
34840,1920,0.60155,34488,-864,0.58545,0
36536,1696,0.76845,33848,-640,0.53521,0
37785,1249,0.89136,32888,-960,0.45985,0
38617,832,0.97323,31303,-1585,0.33543,0
38585,-32,0.97008,30855,-448,0.30026,0
37241,-1344,0.83783,30743,-112,0.29147,0
35704,-1537,0.68658,31255,512,0.33166,0
35128,-576,0.62990,31287,32,0.33417,0
33912,-1216,0.51023,30487,-800,0.27137,0
31895,-2017,0.31175,30615,128,0.28142,0
30247,-1648,0.14958,31207,592,0.32789,0
30151,-96,0.14013,31783,576,0.37311,0
31303,1152,0.25349,33400,1617,0.50004,0
31799,496,0.30230,33960,560,0.54400,0
31735,-64,0.29600,33464,-496,0.50506,0
31559,-176,0.27869,34024,560,0.54902,0
30551,-1008,0.17949,33752,-272,0.52767,0
29431,-1120,0.06928,34392,640,0.57791,0
29399,-32,0.06613,34824,432,0.61182,0
29735,336,0.09919,34744,-80,0.60554,0
30231,496,0.14800,34568,-176,0.59173,0
30295,64,0.15430,33864,-704,0.53646,0
31559,1264,0.27869,32920,-944,0.46236,0
32776,1217,0.39845,32311,-609,0.41455,0
32856,80,0.40632,31143,-1168,0.32287,0
33096,240,0.42994,30775,-368,0.29398,0
34008,912,0.51968,31255,480,0.33166,0
34664,656,0.58424,31527,272,0.35301,0
34760,96,0.59368,30695,-832,0.28770,0
34248,-512,0.54330,30231,-464,0.25128,0
33384,-864,0.45828,29639,-592,0.20480,0
33864,480,0.50551,30647,1008,0.28393,0
34536,672,0.57164,31447,800,0.34673,0
33880,-656,0.50709,31111,-336,0.32035,0
33384,-496,0.45828,32711,1600,0.44595,0
33400,16,0.45985,34408,1697,0.57917,0
33160,-240,0.43623,34088,-320,0.55405,0
33768,608,0.49606,35048,960,0.62941,0
33736,-32,0.49291,35080,32,0.63192,0
32872,-864,0.40789,35064,-16,0.63066,0
33992,1120,0.51811,34792,-272,0.60931,0
34248,256,0.54330,33704,-1088,0.52390,0
34360,112,0.55432,33368,-336,0.49753,0
34488,128,0.56692,32215,-1153,0.40702,0
34024,-464,0.52126,31031,-1184,0.31407,0
34984,960,0.61573,31303,272,0.33543,0
35160,176,0.63304,31463,160,0.34799,0
34840,-320,0.60155,32487,1024,0.42837,0
34216,-624,0.54015,33272,785,0.48999,0
34936,720,0.61100,33336,64,0.49502,0
34440,-496,0.56219,33256,-80,0.48874,0
34264,-176,0.54487,32263,-993,0.41079,0
33864,-400,0.50551,32087,-176,0.39697,0
34712,848,0.58896,32151,64,0.40199,0
34392,-320,0.55747,31927,-224,0.38441,0
33112,-1280,0.43151,31559,-368,0.35552,0
32856,-256,0.40632,31543,-16,0.35427,0
32423,-433,0.36371,31479,-64,0.34924,0
31591,-832,0.28183,31879,400,0.38064,0
31223,-368,0.24562,30839,-1040,0.29900,0
32023,800,0.32435,30903,64,0.30403,0
31543,-480,0.27711,30791,-112,0.29524,0
30743,-800,0.19839,30951,160,0.30779,0
31079,336,0.23145,30951,0,0.30779,0
31223,144,0.24562,30807,-144,0.29649,0
31015,-208,0.22515,30759,-48,0.29272,0
32583,0,0.58254,32615,0,0.44572,1
32439,-144,0.52296,32391,-224,0.38740,1
32407,-32,0.50972,32631,240,0.44988,1
32455,48,0.52958,33608,977,0.70424,1
32263,-192,0.45014,32439,-1169,0.39990,1
32199,-64,0.42367,32615,176,0.44572,1
32151,-48,0.40381,32695,80,0.46655,1
32231,80,0.43691,32055,-640,0.29992,1
32135,-96,0.39719,32743,688,0.47904,1
32167,32,0.41043,32856,113,0.50846,1
32327,160,0.47662,32856,0,0.50846,1
32503,176,0.54944,32936,80,0.52929,1
32503,0,0.54944,33080,144,0.56678,1
32087,-416,0.37733,33416,336,0.65426,1
32407,320,0.50972,32824,-592,0.50013,1
32231,-176,0.43691,33096,272,0.57095,1
32231,0,0.43691,33112,16,0.57511,1
32215,-16,0.43029,32776,-336,0.48763,1
32247,32,0.44353,32375,-401,0.38323,1
32423,176,0.51634,32263,-112,0.35407,1
32551,128,0.56930,32439,176,0.39990,1
32359,-192,0.48986,32599,160,0.44155,1
32808,449,0.67563,32695,96,0.46655,1
32711,-97,0.63550,32599,-96,0.44155,1
31975,-736,0.33099,32535,-64,0.42489,1
32167,192,0.41043,32343,-192,0.37490,1
32199,32,0.42367,32247,-96,0.34991,1
32007,-192,0.34423,32343,96,0.37490,1
32087,80,0.37733,32311,-32,0.36657,1
32087,0,0.37733,32263,-48,0.35407,1
31911,-176,0.30451,32311,48,0.36657,1
32071,160,0.37071,32375,64,0.38323,1
32103,32,0.38395,32167,-208,0.32908,1
32007,-96,0.34423,31143,-1024,0.06248,1
33000,993,0.75507,30903,-240,0.00000,1
32471,-529,0.53620,32295,1392,0.36241,1
32647,176,0.60902,32503,208,0.41656,1
32359,-288,0.48986,33000,497,0.54595,1
32119,-240,0.39057,31927,-1073,0.26660,1
32119,0,0.39057,31543,-384,0.16662,1
32071,-48,0.37071,31847,304,0.24577,1
32199,128,0.42367,32151,304,0.32492,1
32119,-80,0.39057,31735,-416,0.21661,1
32904,785,0.71535,32007,272,0.28743,1
32199,-705,0.42367,31991,-16,0.28326,1
32151,-48,0.40381,31911,-80,0.26243,1
31383,-768,0.08606,32055,144,0.29992,1
32231,848,0.43691,32231,176,0.34574,1
32199,-32,0.42367,32087,-144,0.30825,1
31975,-224,0.33099,31559,-528,0.17079,1
32391,416,0.50310,31623,64,0.18745,1
32471,80,0.53620,32039,416,0.29576,1
32423,-48,0.51634,32711,672,0.47071,1
32599,176,0.58916,33224,513,0.60427,1
32663,64,0.61564,33528,304,0.68342,1
32535,-128,0.56268,33224,-304,0.60427,1
32551,16,0.56930,32535,-689,0.42489,1
32519,-32,0.55606,32423,-112,0.39573,1
32279,-240,0.45676,32391,-32,0.38740,1
32183,-96,0.41705,32167,-224,0.32908,1
32311,128,0.47000,31831,-336,0.24160,1
31895,-416,0.29789,31447,-384,0.14163,1
32167,272,0.41043,32295,848,0.36241,1
32263,96,0.45014,32167,-128,0.32908,1
32119,-144,0.39057,31735,-432,0.21661,1
32295,176,0.46338,32183,448,0.33325,1
32375,80,0.49648,32343,160,0.37490,1
32151,-224,0.40381,32359,16,0.37907,1
31991,-160,0.33761,32215,-144,0.34158,1
32087,96,0.37733,32279,64,0.35824,1
32231,144,0.43691,32295,16,0.36241,1
32295,64,0.46338,32359,64,0.37907,1
32391,96,0.50310,32583,224,0.43739,1
32247,-144,0.44353,32199,-384,0.33741,1
32151,-96,0.40381,32039,-160,0.29576,1
32215,64,0.43029,31879,-160,0.25410,1
32215,0,0.43029,31415,-464,0.13330,1
32103,-112,0.38395,31287,-128,0.09997,1
32327,224,0.47662,31751,464,0.22078,1
32247,-80,0.44353,31687,-64,0.20411,1
32311,64,0.47000,31991,304,0.28326,1
32471,160,0.53620,32263,272,0.35407,1
32327,-144,0.47662,32279,16,0.35824,1
32311,-16,0.47000,32375,96,0.38323,1
32327,16,0.47662,32327,-48,0.37074,1
32391,64,0.50310,32231,-96,0.34574,1
32391,0,0.50310,31975,-256,0.27909,1
32247,-144,0.44353,31719,-256,0.21244,1
32199,-48,0.42367,32247,528,0.34991,1
31879,-320,0.29127,32423,176,0.39573,1
32439,560,0.52296,32455,32,0.40406,1
