raw_emg1,derivative_emg1,normalized_emg1,raw_emg2,derivative_emg2,normalized_emg2,label
30551,0,0.05951,33288,0,0.40807,1
30679,128,0.07855,32968,-320,0.38371,1
30967,288,0.12139,32856,-112,0.37519,1
31527,560,0.20470,32647,-209,0.35928,1
32199,672,0.30467,32327,-320,0.33493,1
32856,657,0.40241,32055,-272,0.31423,1
32792,-64,0.39289,32055,0,0.31423,1
34040,1248,0.57855,31735,-320,0.28988,1
34456,416,0.64043,31415,-320,0.26553,1
34120,-336,0.59045,31591,176,0.27892,1
34728,608,0.68090,31495,-96,0.27161,1
34680,-48,0.67376,31927,432,0.30449,1
34296,-384,0.61663,31991,64,0.30936,1
33832,-464,0.54760,32135,144,0.32032,1
33880,48,0.55475,32247,112,0.32884,1
33128,-752,0.44287,32375,128,0.33858,1
31799,-1329,0.24517,32407,32,0.34102,1
31351,-448,0.17852,32904,497,0.37884,1
30823,-528,0.09997,33304,400,0.40928,1
30839,16,0.10235,33320,16,0.41050,1
30263,-576,0.01666,33256,-64,0.40563,1
30871,608,0.10711,33016,-240,0.38737,1
31127,256,0.14519,32824,-192,0.37275,1
31703,576,0.23088,32968,144,0.38371,1
32375,672,0.33085,32679,-289,0.36172,1
33064,689,0.43335,32439,-240,0.34346,1
33576,512,0.50952,32007,-432,0.31058,1
34104,528,0.58807,31943,-64,0.30571,1
34376,272,0.62853,31671,-272,0.28501,1
34520,144,0.64996,31399,-272,0.26431,1
34776,256,0.68804,31959,560,0.30693,1
34728,-48,0.68090,32824,865,0.37275,1
34200,-528,0.60235,32792,-32,0.37032,1
33832,-368,0.54760,32551,-241,0.35198,1
33256,-576,0.46192,32663,112,0.36050,1
32535,-721,0.35466,32856,193,0.37519,1
31767,-768,0.24040,32968,112,0.38371,1
31287,-480,0.16900,33272,304,0.40685,1
30903,-384,0.11187,33416,144,0.41781,1
30695,-208,0.08093,33768,352,0.44460,1
30615,-80,0.06903,33192,-576,0.40076,1
30583,-32,0.06427,33128,-64,0.39589,1
30967,384,0.12139,33016,-112,0.38737,1
31751,784,0.23802,33128,112,0.39589,1
32407,656,0.33561,32711,-417,0.36416,1
32952,545,0.41669,32519,-192,0.34954,1
33528,576,0.50238,32471,-48,0.34589,1
34072,544,0.58331,32199,-272,0.32519,1
34632,560,0.66662,32119,-80,0.31910,1
34904,272,0.70708,32263,144,0.33006,1
35896,992,0.85466,32311,48,0.33371,1
35176,-720,0.74755,32679,368,0.36172,1
34920,-256,0.70946,32583,-96,0.35441,1
34472,-448,0.64281,32055,-528,0.31423,1
33704,-768,0.52856,32471,416,0.34589,1
33064,-640,0.43335,33000,529,0.38615,1
32183,-881,0.30229,33096,96,0.39346,1
31543,-640,0.20708,33384,288,0.41537,1
31223,-320,0.15948,33400,16,0.41659,1
30823,-400,0.09997,33400,0,0.41659,1
30759,-64,0.09045,33112,-288,0.39467,1
30855,96,0.10473,33000,-112,0.38615,1
31143,288,0.14758,32679,-321,0.36172,1
31703,560,0.23088,32439,-240,0.34346,1
32439,736,0.34037,32183,-256,0.32397,1
33272,833,0.46430,32135,-48,0.32032,1
34056,784,0.58093,32087,-48,0.31667,1
34664,608,0.67138,31863,-224,0.29962,1
34920,256,0.70946,31783,-80,0.29353,1
35176,256,0.74755,31671,-112,0.28501,1
35256,80,0.75945,31783,112,0.29353,1
35160,-96,0.74517,32231,448,0.32763,1
34680,-480,0.67376,32279,48,0.33128,1
34280,-400,0.61425,32391,112,0.33980,1
33640,-640,0.51904,32503,112,0.34833,1
33816,176,0.54522,32231,-272,0.32763,1
32263,-1553,0.31419,32952,721,0.38250,1
31911,-352,0.26183,33640,688,0.43486,1
31639,-272,0.22136,33960,320,0.45921,1
31367,-272,0.18090,33720,-240,0.44094,1
31255,-112,0.16424,33416,-304,0.41781,1
31463,208,0.19518,33288,-128,0.40807,1
31639,176,0.22136,32808,-480,0.37154,1
32151,512,0.29753,32663,-145,0.36050,1
32679,528,0.37608,32567,-96,0.35320,1
33576,897,0.50952,33016,449,0.38737,1
34168,592,0.59759,32263,-753,0.33006,1
34744,576,0.68328,32263,0,0.33006,1
35160,416,0.74517,32295,32,0.33250,1
35096,-64,0.73564,32295,0,0.33250,1
35480,384,0.79277,32343,48,0.33615,1
35400,-80,0.78087,32856,513,0.37519,1
35160,-240,0.74517,32519,-337,0.34954,1
34456,-704,0.64043,32808,289,0.37154,1
33496,-960,0.49762,32711,-97,0.36416,1
32615,-881,0.36656,32727,16,0.36537,1
32087,-528,0.28801,32808,81,0.37154,1
31479,-608,0.19756,34024,1216,0.46408,1
31175,-304,0.15234,34072,48,0.46773,1
30999,-176,0.12615,33640,-432,0.43486,1
30887,-112,0.10949,33288,-352,0.40807,1
30967,80,0.12139,33704,416,0.43973,1
31207,240,0.15710,33272,-432,0.40685,1
31911,704,0.26183,33352,80,0.41294,1
32792,881,0.39289,32888,-464,0.37763,1
33512,720,0.50000,32792,-96,0.37032,1
34248,736,0.60949,32663,-129,0.36050,1
34760,512,0.68566,32423,-240,0.34224,1
35272,512,0.76183,32167,-256,0.32275,1
36568,1296,0.95463,31991,-176,0.30936,1
35736,-832,0.83085,31719,-272,0.28866,1
35608,-128,0.81181,31879,160,0.30084,1
35416,-192,0.78325,32103,224,0.31788,1
34840,-576,0.69756,32375,272,0.33858,1
34056,-784,0.58093,32776,401,0.36910,1
33304,-752,0.46906,32904,128,0.37884,1
32455,-849,0.34276,33000,96,0.38615,1
31831,-624,0.24993,33160,160,0.39833,1
31239,-592,0.16186,33736,576,0.44216,1
30919,-320,0.11425,33800,64,0.44703,1
30695,-224,0.08093,33320,-480,0.41050,1
30663,-32,0.07617,33224,-96,0.40320,1
31047,384,0.13329,32695,-529,0.36294,1
31159,112,0.14996,32936,241,0.38128,1
32263,1104,0.31419,32183,-753,0.32397,1
33016,753,0.42621,32039,-144,0.31301,1
33544,528,0.50476,31623,-416,0.28135,1
34024,480,0.57617,31079,-544,0.23995,1
34472,448,0.64281,30983,-96,0.23265,1
34568,96,0.65710,31479,496,0.27040,1
34632,64,0.66662,31687,208,0.28623,1
34696,64,0.67614,32263,576,0.33006,1
34376,-320,0.62853,32263,0,0.33006,1
33960,-416,0.56665,32231,-32,0.32763,1
33272,-688,0.46430,32311,80,0.33371,1
32519,-753,0.35228,32439,128,0.34346,1
31991,-528,0.27373,32519,80,0.34954,1
31447,-544,0.19280,32920,401,0.38006,1
31079,-368,0.13805,33336,416,0.41172,1
30807,-272,0.09759,33064,-272,0.39102,1
30151,-656,0.00000,32711,-353,0.36416,1
30775,624,0.09283,32615,-96,0.35685,1
31175,400,0.15234,32647,32,0.35928,1
31703,528,0.23088,32776,129,0.36910,1
32471,768,0.34514,32327,-449,0.33493,1
33112,641,0.44049,32167,-160,0.32275,1
33672,560,0.52380,32231,64,0.32763,1
34008,336,0.57379,32023,-208,0.31180,1
34568,560,0.65710,32087,64,0.31667,1
34744,176,0.68328,31847,-240,0.29840,1
34568,-176,0.65710,31815,-32,0.29597,1
34696,128,0.67614,32231,416,0.32763,1
34392,-304,0.63091,32247,16,0.32884,1
33848,-544,0.54999,32247,0,0.32884,1
33256,-592,0.46192,32423,176,0.34224,1
32567,-689,0.35942,31927,-496,0.30449,1
31975,-592,0.27135,33624,1697,0.43364,1
31383,-592,0.18328,33960,336,0.45921,1
31063,-320,0.13567,33336,-624,0.41172,1
30887,-176,0.10949,33240,-96,0.40441,1
30871,-16,0.10711,33464,224,0.42146,1
30919,48,0.11425,33288,-176,0.40807,1
31335,416,0.17614,33896,608,0.45434,1
32007,672,0.27611,33048,-848,0.38980,1
32920,913,0.41193,32792,-256,0.37032,1
33432,512,0.48810,32471,-321,0.34589,1
33640,208,0.51904,32071,-400,0.31545,1
34248,608,0.60949,32135,64,0.32032,1
34312,64,0.61901,32039,-96,0.31301,1
34872,560,0.70232,31751,-288,0.29110,1
35144,272,0.74278,31751,0,0.29110,1
34856,-288,0.69994,32151,400,0.32154,1
34472,-384,0.64281,33128,977,0.39589,1
33832,-640,0.54760,32279,-849,0.33128,1
33192,-640,0.45240,32455,176,0.34467,1
32471,-721,0.34514,32519,64,0.34954,1
31815,-656,0.24755,32567,48,0.35320,1
31351,-464,0.17852,32663,96,0.36050,1
31207,-144,0.15710,33784,1121,0.44581,1
31031,-176,0.13091,33624,-160,0.43364,1
30791,-240,0.09521,33240,-384,0.40441,1
30935,144,0.11663,32968,-272,0.38371,1
31287,352,0.16900,32808,-160,0.37154,1
32039,752,0.28087,32519,-289,0.34954,1
32599,560,0.36418,32359,-160,0.33737,1
33304,705,0.46906,32311,-48,0.33371,1
33960,656,0.56665,32503,192,0.34833,1
34344,384,0.62377,32183,-320,0.32397,1
34504,160,0.64758,31927,-256,0.30449,1
34920,416,0.70946,31751,-176,0.29110,1
34920,0,0.70946,31815,64,0.29597,1
34808,-112,0.69280,31735,-80,0.28988,1
34632,-176,0.66662,32263,528,0.33006,1
34328,-304,0.62139,32359,96,0.33737,1
33784,-544,0.54046,32567,208,0.35320,1
33176,-608,0.45001,32663,96,0.36050,1
32647,-529,0.37132,32727,64,0.36537,1
32631,-16,0.36894,33240,513,0.40441,1
31815,-816,0.24755,33480,240,0.42268,1
31575,-240,0.21184,33704,224,0.43973,1
31415,-160,0.18804,33368,-336,0.41416,1
32295,880,0.31895,33720,352,0.44094,1
31911,-384,0.26183,33320,-400,0.41050,1
32263,352,0.31419,33320,0,0.41050,1
32503,240,0.34990,33000,-320,0.38615,1
33048,545,0.43097,32936,-64,0.38128,1
34616,1568,0.66424,32583,-353,0.35441,1
35096,480,0.73564,32103,-480,0.31788,1
35432,336,0.78563,31879,-224,0.30084,1
35624,192,0.81419,31687,-192,0.28623,1
35688,64,0.82371,31991,304,0.30936,1
35720,32,0.82847,32279,288,0.33128,1
35432,-288,0.78563,32279,0,0.33128,1
34920,-512,0.70946,32343,64,0.33615,1
34152,-768,0.59521,32407,64,0.34102,1
32856,-1296,0.40241,32359,-48,0.33737,1
32631,-225,0.36894,32647,288,0.35928,1
32231,-400,0.30943,33112,465,0.39467,1
31879,-352,0.25707,34120,1008,0.47139,1
31383,-496,0.18328,33688,-432,0.43851,1
31751,368,0.23802,33368,-320,0.41416,1
31399,-352,0.18566,33416,48,0.41781,1
31639,240,0.22136,33080,-336,0.39224,1
33064,1425,0.43335,32663,-417,0.36050,1
32776,-288,0.39051,31815,-848,0.29597,1
33576,800,0.50952,32055,240,0.31423,1
34104,528,0.58807,31831,-224,0.29718,1
34792,688,0.69042,32119,288,0.31910,1
35368,576,0.77611,33288,1169,0.40807,1
35704,336,0.82609,32263,-1025,0.33006,1
35816,112,0.84276,32199,-64,0.32519,1
35560,-256,0.80467,32407,208,0.34102,1
35272,-288,0.76183,32279,-128,0.33128,1
34616,-656,0.66424,32439,160,0.34346,1
34104,-512,0.58807,32727,288,0.36537,1
33304,-800,0.46906,32888,161,0.37763,1
31863,-1441,0.25469,33272,384,0.40685,1
31959,96,0.26897,33752,480,0.44338,1
31671,-288,0.22612,34008,256,0.46286,1
31783,112,0.24278,34040,32,0.46530,1
31655,-128,0.22374,33608,-432,0.43242,1
31447,-208,0.19280,33448,-160,0.42024,1
32183,736,0.30229,32872,-576,0.37641,1
32503,320,0.34990,32423,-449,0.34224,1
33080,577,0.43573,32135,-288,0.32032,1
33848,768,0.54999,32503,368,0.34833,1
34504,656,0.64758,32247,-256,0.32884,1
35144,640,0.74278,32023,-224,0.31180,1
35560,416,0.80467,31975,-48,0.30814,1
35752,192,0.83323,31879,-96,0.30084,1
35816,64,0.84276,31719,-160,0.28866,1
35800,-16,0.84037,32263,544,0.33006,1
35464,-336,0.79039,32295,32,0.33250,1
34952,-512,0.71422,32535,240,0.35076,1
34360,-592,0.62615,32711,176,0.36416,1
33800,-560,0.54284,32663,-48,0.36050,1
33128,-672,0.44287,33432,769,0.41903,1
32615,-513,0.36656,33736,304,0.44216,1
32407,-208,0.33561,33976,240,0.46043,1
31975,-432,0.27135,34248,272,0.48113,1
31863,-112,0.25469,33976,-272,0.46043,1
32215,352,0.30705,33880,-96,0.45312,1
32359,144,0.32847,33464,-416,0.42146,1
32615,256,0.36656,33416,-48,0.41781,1
32872,257,0.40479,32824,-592,0.37275,1
32872,0,0.40479,33576,752,0.42998,1
34104,1232,0.58807,32295,-1281,0.33250,1
34536,432,0.65234,33048,753,0.38980,1
35160,624,0.74517,32055,-993,0.31423,1
35512,352,0.79753,32055,0,0.31423,1
35416,-96,0.78325,31959,-96,0.30693,1
35320,-96,0.76897,32375,416,0.33858,1
35032,-288,0.72612,32599,224,0.35563,1
34328,-704,0.62139,32535,-64,0.35076,1
33800,-528,0.54284,32984,449,0.38493,1
33224,-576,0.45716,33240,256,0.40441,1
32647,-577,0.37132,33416,176,0.41781,1
32247,-400,0.31181,33720,304,0.44094,1
31879,-368,0.25707,34584,864,0.50670,1
31511,-368,0.20232,34536,-48,0.50304,1
31687,176,0.22850,34056,-480,0.46651,1
31671,-16,0.22612,34248,192,0.48113,1
31927,256,0.26421,33688,-560,0.43851,1
32359,432,0.32847,33400,-288,0.41659,1
33160,801,0.44763,32952,-448,0.38250,1
33256,96,0.46192,32936,-16,0.38128,1
34536,1280,0.65234,32455,-481,0.34467,1
34936,400,0.71184,31799,-656,0.29475,1
35960,1024,0.86418,31799,0,0.29475,1
35432,-528,0.78563,31623,-176,0.28135,1
35704,272,0.82609,31927,304,0.30449,1
35528,-176,0.79991,32327,400,0.33493,1
34840,-688,0.69756,32375,48,0.33858,1
34136,-704,0.59283,32599,224,0.35563,1
33544,-592,0.50476,33064,465,0.39102,1
32824,-720,0.39765,33160,96,0.39833,1
32103,-721,0.29039,34088,928,0.46895,1
31559,-544,0.20946,33976,-112,0.46043,1
31223,-336,0.15948,34040,64,0.46530,1
31639,416,0.22136,33736,-304,0.44216,1
30583,-1056,0.06427,33528,-208,0.42633,1
30903,320,0.11187,33512,-16,0.42511,1
31335,432,0.17614,33576,64,0.42998,1
32423,1088,0.33799,33432,-144,0.41903,1
33032,609,0.42859,32311,-1121,0.33371,1
34040,1008,0.57855,32792,481,0.37032,1
34600,560,0.66186,32535,-257,0.35076,1
35160,560,0.74517,32551,16,0.35198,1
35528,368,0.79991,32920,369,0.38006,1
35880,352,0.85228,32455,-465,0.34467,1
35800,-80,0.84037,32567,112,0.35320,1
35304,-496,0.76659,32920,353,0.38006,1
35032,-272,0.72612,32904,-16,0.37884,1
34392,-640,0.63091,32968,64,0.38371,1
33688,-704,0.52618,33096,128,0.39346,1
33112,-576,0.44049,33336,240,0.41172,1
32407,-705,0.33561,33480,144,0.42268,1
31911,-496,0.26183,34328,848,0.48721,1
32327,416,0.32371,34136,-192,0.47260,1
31127,-1200,0.14519,34104,-32,0.47017,1
30983,-144,0.12377,33752,-352,0.44338,1
30903,-80,0.11187,33736,-16,0.44216,1
31159,256,0.14996,33336,-400,0.41172,1
31319,160,0.17376,33384,48,0.41537,1
32295,976,0.31895,32327,-1057,0.33493,1
33288,993,0.46668,33000,673,0.38615,1
34152,864,0.59521,32455,-545,0.34467,1
34872,720,0.70232,31943,-512,0.30571,1
35224,352,0.75469,31607,-336,0.28014,1
35160,-64,0.74517,31351,-256,0.26065,1
35352,192,0.77373,31415,64,0.26553,1
35320,-32,0.76897,31911,496,0.30327,1
35592,272,0.80943,32055,144,0.31423,1
34312,-1280,0.61901,32023,-32,0.31180,1
33240,-1072,0.45954,32215,192,0.32641,1
32679,-561,0.37608,32359,144,0.33737,1
32423,-256,0.33799,33112,753,0.39467,1
31383,-1040,0.18328,33816,704,0.44825,1
30727,-656,0.08569,33832,16,0.44947,1
30727,0,0.08569,33784,-48,0.44581,1
30759,32,0.09045,33624,-160,0.43364,1
31287,528,0.16900,33752,128,0.44338,1
31495,208,0.19994,33768,16,0.44460,1
32215,720,0.30705,33992,224,0.46164,1
33112,897,0.44049,33688,-304,0.43851,1
34056,944,0.58093,33656,-32,0.43607,1
34696,640,0.67614,33416,-240,0.41781,1
35848,1152,0.84752,33320,-96,0.41050,1
36168,320,0.89512,33272,-48,0.40685,1
36104,-64,0.88560,32984,-288,0.38493,1
36328,224,0.91892,33848,864,0.45068,1
36648,320,0.96653,35416,1568,0.57002,1
36184,-464,0.89750,37001,1585,0.69064,1
35912,-272,0.85704,38057,1056,0.77100,1
35320,-592,0.76897,38681,624,0.81849,1
34536,-784,0.65234,39337,656,0.86842,1
33704,-832,0.52856,39593,256,0.88790,1
33032,-672,0.42859,39961,368,0.91591,1
32167,-865,0.29991,40553,592,0.96096,1
32471,304,0.34514,40665,112,0.96948,1
32343,-128,0.32609,40777,112,0.97801,1
33080,737,0.43573,41066,289,1.00000,1
32695,-385,0.37846,41050,-16,0.99878,1
33240,545,0.45954,40489,-561,0.95609,1
33432,192,0.48810,40409,-80,0.95000,1
34536,1104,0.65234,40473,64,0.95487,1
35064,528,0.73088,40425,-48,0.95122,1
35848,784,0.84752,39945,-480,0.91469,1
36184,336,0.89750,39785,-160,0.90251,1
36344,160,0.92130,39513,-272,0.88181,1
36232,-112,0.90464,38985,-528,0.84163,1
36136,-96,0.89036,39081,96,0.84893,1
35752,-384,0.83323,38889,-192,0.83432,1
35272,-480,0.76183,39161,272,0.85502,1
34856,-416,0.69994,39417,256,0.87451,1
33816,-1040,0.54522,39257,-160,0.86233,1
33352,-464,0.47620,39817,560,0.90495,1
32968,-384,0.41907,40105,288,0.92686,1
32439,-529,0.34037,39577,-528,0.88668,1
32183,-256,0.30229,39801,224,0.90373,1
31831,-352,0.24993,39865,64,0.90860,1
32295,464,0.31895,40121,256,0.92808,1
32423,128,0.33799,40073,-48,0.92443,1
33128,705,0.44287,39785,-288,0.90251,1
33608,480,0.51428,39833,48,0.90616,1
34408,800,0.63329,39897,64,0.91103,1
35032,624,0.72612,39609,-288,0.88912,1
35720,688,0.82847,38873,-736,0.83310,1
36024,304,0.87370,38601,-272,0.81240,1
36792,768,0.98795,38601,0,0.81240,1
36873,81,1.00000,39033,432,0.84528,1
36712,-161,0.97605,39513,480,0.88181,1
36488,-224,0.94273,39833,320,0.90616,1
35640,-848,0.81657,39881,48,0.90982,1
34840,-800,0.69756,39705,-176,0.89642,1
33864,-976,0.55237,39113,-592,0.85137,1
33016,-848,0.42621,38953,-160,0.83919,1
32439,-577,0.34037,39113,160,0.85137,1
31863,-576,0.25469,37881,-1232,0.75761,1
31559,-304,0.20946,37705,-176,0.74422,1
31495,-64,0.19994,38201,496,0.78196,1
31719,224,0.23326,38697,496,0.81971,1
32407,688,0.33561,37817,-880,0.75274,1
33240,833,0.45954,37945,128,0.76248,1
33976,736,0.56903,37849,-96,0.75518,1
34472,496,0.64281,37913,64,0.76005,1
34648,176,0.66900,37529,-384,0.73082,1
34760,112,0.68566,37561,32,0.73326,1
34712,-48,0.67852,36921,-640,0.68455,1
35992,1280,0.86894,37289,368,0.71256,1
35928,-64,0.85942,37225,-64,0.70769,1
35624,-304,0.81419,36264,-961,0.63455,1
35192,-432,0.74993,36680,416,0.66621,1
34840,-352,0.69756,36408,-272,0.64551,1
34024,-816,0.57617,36744,336,0.67108,1
32695,-1329,0.37846,37577,833,0.73447,1
32375,-320,0.33085,38329,752,0.79170,1
31671,-704,0.22612,38393,64,0.79658,1
31223,-448,0.15948,38297,-96,0.78927,1
31143,-80,0.14758,38329,32,0.79170,1
31175,32,0.15234,37993,-336,0.76613,1
31431,256,0.19042,37593,-400,0.73569,1
32135,704,0.29515,37321,-272,0.71499,1
32792,657,0.39289,37097,-224,0.69795,1
34456,1664,0.64043,37289,192,0.71256,1
34376,-80,0.62853,37465,176,0.72595,1
35208,832,0.75231,37193,-272,0.70525,1
36040,832,0.87608,36632,-561,0.66256,1
36360,320,0.92368,36744,112,0.67108,1
36264,-96,0.90940,37145,401,0.70160,1
36120,-144,0.88798,37449,304,0.72473,1
36104,-16,0.88560,37561,112,0.73326,1
35992,-112,0.86894,38089,528,0.77344,1
34728,-1264,0.68090,38105,16,0.77466,1
33576,-1152,0.50952,38153,48,0.77831,1
32792,-784,0.39289,38281,128,0.78805,1
31943,-849,0.26659,38345,64,0.79292,1
31495,-448,0.19994,38073,-272,0.77222,1
31159,-336,0.14996,37433,-640,0.72352,1
30919,-240,0.11425,37641,208,0.73935,1
31127,208,0.14519,37865,224,0.75639,1
31143,16,0.14758,37881,16,0.75761,1
30823,-320,0.09997,37609,-272,0.73691,1
32087,1264,0.28801,37001,-608,0.69064,1
32695,608,0.37846,36937,-64,0.68577,1
33128,433,0.44287,36969,32,0.68820,1
33752,624,0.53570,36536,-433,0.65525,1
34424,672,0.63567,36520,-16,0.65403,1
34408,-16,0.63329,36488,-32,0.65160,1
35128,720,0.74040,36392,-96,0.64429,1
36248,1120,0.90702,36776,384,0.67352,1
35432,-816,0.78563,37209,433,0.70647,1
35128,-304,0.74040,37097,-112,0.69795,1
34264,-864,0.61187,37033,-64,0.69307,1
33416,-848,0.48572,37097,64,0.69795,1
32647,-769,0.37132,37209,112,0.70647,1
32407,-240,0.33561,37257,48,0.71012,1
31735,-672,0.23564,37001,-256,0.69064,1
30647,-1088,0.07379,37177,176,0.70403,1
30615,-32,0.06903,37177,0,0.70403,1
30471,-144,0.04760,37177,0,0.70403,1
30599,128,0.06665,37257,80,0.71012,1
30823,224,0.09997,37001,-256,0.69064,1
31639,816,0.22136,36232,-769,0.63212,1
32519,880,0.35228,36232,0,0.63212,1
33320,801,0.47144,35928,-304,0.60898,1
34104,784,0.58807,35304,-624,0.56149,1
34648,544,0.66900,34952,-352,0.53470,1
34888,240,0.70470,34872,-80,0.52861,1
35416,528,0.78325,35224,352,0.55540,1
35608,192,0.81181,35176,-48,0.55175,1
35624,16,0.81419,35512,336,0.57732,1
35160,-464,0.74517,34888,-624,0.52983,1
34952,-208,0.71422,35832,944,0.60167,1
34472,-480,0.64281,36104,272,0.62237,1
34408,-64,0.63329,36248,144,0.63333,1
32295,-2113,0.31895,36536,288,0.65525,1
32199,-96,0.30467,36168,-368,0.62725,1
31687,-512,0.22850,35960,-208,0.61142,1
31463,-224,0.19518,36072,112,0.61994,1
31383,-80,0.18328,36184,112,0.62846,1
31271,-112,0.16662,36552,368,0.65647,1
31687,416,0.22850,36344,-208,0.64064,1
32071,384,0.28563,33320,-3024,0.41050,1
32695,624,0.37846,33832,512,0.44947,1
33432,737,0.48810,34520,688,0.50183,1
34184,752,0.59997,32071,-2449,0.31545,1
34712,528,0.67852,30231,-1840,0.17542,1
34792,80,0.69042,28743,-1488,0.06218,1
34856,64,0.69994,27926,-817,0.00000,1
35208,352,0.75231,30407,2481,0.18881,1
34744,-464,0.68328,32279,1872,0.33128,1
34776,32,0.68804,30935,-1344,0.22900,1
34136,-640,0.59283,29847,-1088,0.14619,1
33352,-784,0.47620,29143,-704,0.09262,1
32711,-641,0.38084,28823,-320,0.06826,1
31799,-912,0.24517,27974,-849,0.00365,1
31031,-768,0.13091,28839,865,0.06948,1
30791,-240,0.09521,28871,32,0.07192,1
30487,-304,0.04999,28743,-128,0.06218,1
35576,0,0.70751,36985,0,0.66839,0
35432,-144,0.69710,36360,-625,0.63543,0
36056,624,0.74218,35992,-368,0.61603,0
35960,-96,0.73525,35384,-608,0.58397,0
36248,288,0.75605,35720,336,0.60169,0
37417,1169,0.84050,34888,-832,0.55782,0
38569,1152,0.92372,34808,-80,0.55360,0
39289,720,0.97573,35144,336,0.57132,0
39625,336,1.00000,35912,768,0.61181,0
39433,-192,0.98613,36824,912,0.65990,0
39625,192,1.00000,38633,1809,0.75529,0
38313,-1312,0.90522,41018,2385,0.88104,0
37305,-1008,0.83241,42890,1872,0.97975,0
37145,-160,0.82085,43274,384,1.00000,0
37145,0,0.82085,42378,-896,0.95276,0
36104,-1041,0.74565,40553,-1825,0.85653,0
34456,-1648,0.62660,38665,-1888,0.75697,0
33528,-928,0.55956,37561,-1104,0.69876,0
32583,-945,0.49130,35768,-1793,0.60422,0
31511,-1072,0.41386,34264,-1504,0.52491,0
31383,-128,0.40461,32824,-1440,0.44899,0
32535,1152,0.48783,30935,-1889,0.34938,0
34296,1761,0.61504,29719,-1216,0.28526,0
35336,1040,0.69017,28759,-960,0.23464,0
35464,128,0.69941,28566,-193,0.22447,0
35832,368,0.72600,27190,-1376,0.15191,0
36200,368,0.75258,26918,-272,0.13757,0
35800,-400,0.72369,29111,2193,0.25320,0
34184,-1616,0.60695,31543,2432,0.38144,0
31607,-2577,0.42079,34584,3041,0.54179,0
29719,-1888,0.28440,36024,1440,0.61772,0
30135,416,0.31445,36680,656,0.65231,0
29287,-848,0.25320,34872,-1808,0.55697,0
30199,912,0.31908,34776,-96,0.55191,0
30615,416,0.34913,32792,-1984,0.44730,0
32135,1520,0.45893,30775,-2017,0.34094,0
33096,961,0.52835,29287,-1488,0.26248,0
33368,272,0.54800,27814,-1473,0.18481,0
33304,-64,0.54338,26950,-864,0.13926,0
33128,-176,0.53067,27158,208,0.15022,0
32055,-1073,0.45315,28438,1280,0.21772,0
28646,-3409,0.20689,32263,3825,0.41940,0
27718,-928,0.13985,33512,1249,0.48526,0
28198,480,0.17453,36120,2608,0.62278,0
29751,1553,0.28672,37513,1393,0.69623,0
31399,1648,0.40576,37385,-128,0.68948,0
32904,1505,0.51448,37081,-304,0.67345,0
34344,1440,0.61851,35848,-1233,0.60844,0
35768,1424,0.72138,35176,-672,0.57300,0
36504,736,0.77454,34312,-864,0.52745,0
36600,96,0.78148,33080,-1232,0.46248,0
37145,545,0.82085,32439,-641,0.42868,0
37385,240,0.83819,31815,-624,0.39578,0
36648,-737,0.78495,32840,1025,0.44983,0
33160,-3488,0.53298,36376,3536,0.63628,0
30215,-2945,0.32023,37929,1553,0.71817,0
28182,-2033,0.17337,40185,2256,0.83712,0
28118,-64,0.16875,39753,-432,0.81434,0
27702,-416,0.13870,40217,464,0.83881,0
28022,320,0.16181,39753,-464,0.81434,0
28550,528,0.19996,39737,-16,0.81350,0
28791,241,0.21737,39577,-160,0.80506,0
29751,960,0.28672,38585,-992,0.75276,0
30455,704,0.33757,38233,-352,0.73419,0
31591,1136,0.41963,38041,-192,0.72407,0
31959,368,0.44622,37785,-256,0.71057,0
33384,1425,0.54916,37753,-32,0.70888,0
32968,-416,0.51911,37801,48,0.71142,0
33384,416,0.54916,37401,-400,0.69032,0
33176,-208,0.53413,36937,-464,0.66586,0
33128,-48,0.53067,36328,-609,0.63375,0
32615,-513,0.49361,37417,1089,0.69117,0
32103,-512,0.45662,38249,832,0.73504,0
32631,528,0.49476,39609,1360,0.80675,0
33560,929,0.56187,41258,1649,0.89370,0
34536,976,0.63238,41418,160,0.90214,0
33208,-1328,0.53644,40970,-448,0.87851,0
33016,-192,0.52257,39753,-1217,0.81434,0
33464,448,0.55494,37497,-2256,0.69539,0
33192,-272,0.53529,35256,-2241,0.57722,0
32423,-769,0.47974,33800,-1456,0.50045,0
32407,-16,0.47858,32936,-864,0.45489,0
32856,449,0.51102,31879,-1057,0.39916,0
33384,528,0.54916,31831,-48,0.39663,0
33336,-48,0.54569,32151,320,0.41350,0
33304,-32,0.54338,32583,432,0.43628,0
33144,-160,0.53182,33304,721,0.47429,0
32952,-192,0.51795,33256,-48,0.47176,0
32663,-289,0.49707,33816,560,0.50129,0
32375,-288,0.47627,33960,144,0.50888,0
32071,-304,0.45431,34648,688,0.54516,0
31479,-592,0.41154,34776,128,0.55191,0
31239,-240,0.39421,35064,288,0.56710,0
30439,-800,0.33642,33496,-1568,0.48442,0
30375,-64,0.33179,34552,1056,0.54010,0
30135,-240,0.31445,32711,-1841,0.44303,0
30007,-128,0.30521,33512,801,0.48526,0
30135,128,0.31445,33928,416,0.50720,0
29959,-176,0.30174,33672,-256,0.49370,0
30375,416,0.33179,34312,640,0.52745,0
30663,288,0.35260,34728,416,0.54938,0
31927,1264,0.44391,35016,288,0.56457,0
31991,64,0.44853,34888,-128,0.55782,0
32679,688,0.49823,34920,32,0.55950,0
33064,385,0.52604,34984,64,0.56288,0
34120,1056,0.60233,36424,1440,0.63881,0
34312,192,0.61620,35128,-1296,0.57047,0
34200,-112,0.60811,34632,-496,0.54432,0
33960,-240,0.59077,33976,-656,0.50973,0
33448,-512,0.55378,34152,176,0.51901,0
33448,0,0.55378,35432,1280,0.58650,0
32711,-737,0.50054,34424,-1008,0.53335,0
32535,-176,0.48783,34376,-48,0.53082,0
31575,-960,0.41848,33896,-480,0.50551,0
30823,-752,0.36416,34088,192,0.51563,0
30359,-464,0.33064,35064,976,0.56710,0
29527,-832,0.27053,35736,672,0.60253,0
29191,-336,0.24626,36328,592,0.63375,0
29255,64,0.25088,36296,-32,0.63206,0
29495,240,0.26822,34456,-1840,0.53504,0
30023,528,0.30636,31351,-3105,0.37132,0
30807,784,0.36300,33016,1665,0.45911,0
31479,672,0.41154,33560,544,0.48779,0
32199,720,0.46356,34632,1072,0.54432,0
33064,865,0.52604,34360,-272,0.52998,0
33832,768,0.58152,31687,-2673,0.38903,0
34488,656,0.62891,32263,576,0.41940,0
34408,-80,0.62313,32007,-256,0.40591,0
34232,-176,0.61042,31415,-592,0.37469,0
33816,-416,0.58037,32087,672,0.41012,0
33080,-736,0.52720,33864,1777,0.50382,0
32455,-625,0.48205,34920,1056,0.55950,0
31703,-752,0.42773,36104,1184,0.62194,0
30487,-1216,0.33988,34056,-2048,0.51395,0
29607,-880,0.27631,34920,864,0.55950,0
29319,-288,0.25551,34664,-256,0.54601,0
29207,-112,0.24742,33080,-1584,0.46248,0
29223,16,0.24857,32824,-256,0.44899,0
29751,528,0.28672,33048,224,0.46080,0
30151,400,0.31561,33592,544,0.48948,0
30743,592,0.35838,33752,160,0.49792,0
31287,544,0.39767,31863,-1889,0.39831,0
32215,928,0.46471,32391,528,0.42615,0
33304,1089,0.54338,32151,-240,0.41350,0
34232,928,0.61042,31015,-1136,0.35360,0
34712,480,0.64509,31335,320,0.37047,0
35112,400,0.67399,32551,1216,0.43459,0
35128,16,0.67514,30935,-1616,0.34938,0
34632,-496,0.63931,29527,-1408,0.27514,0
33816,-816,0.58037,27942,-1585,0.19156,0
33432,-384,0.55263,26854,-1088,0.13419,0
32359,-1073,0.47511,26198,-656,0.09960,0
31191,-1168,0.39074,26166,-32,0.09792,0
30551,-640,0.34451,26390,224,0.10973,0
29815,-736,0.29134,26294,-96,0.10467,0
29015,-800,0.23355,26806,512,0.13166,0
28662,-353,0.20805,27142,336,0.14938,0
28470,-192,0.19418,27446,304,0.16541,0
28550,80,0.19996,27750,304,0.18144,0
29015,465,0.23355,27782,32,0.18313,0
29735,720,0.28556,27686,-96,0.17806,0
30151,416,0.31561,27574,-112,0.17216,0
31255,1104,0.39536,26518,-1056,0.11648,0
32295,1040,0.47049,25782,-736,0.07767,0
33016,721,0.52257,24918,-864,0.03211,0
33368,352,0.54800,25094,176,0.04139,0
33992,624,0.59308,25654,560,0.07092,0
34088,96,0.60001,26214,560,0.10045,0
33816,-272,0.58037,27062,848,0.14516,0
33672,-144,0.56996,27702,640,0.17891,0
32920,-752,0.51564,28086,384,0.19916,0
32375,-545,0.47627,28919,833,0.24308,0
31399,-976,0.40576,28999,80,0.24730,0
30615,-784,0.34913,29111,112,0.25320,0
30311,-304,0.32717,28646,-465,0.22868,0
30055,-256,0.30868,28006,-640,0.19494,0
29319,-736,0.25551,27494,-512,0.16794,0
28775,-544,0.21621,27014,-480,0.14263,0
28646,-129,0.20689,27606,592,0.17385,0
29991,1345,0.30405,27446,-160,0.16541,0
30791,800,0.36184,26870,-576,0.13504,0
31511,720,0.41386,26454,-416,0.11310,0
31783,272,0.43350,26582,128,0.11985,0
32487,704,0.48436,26678,96,0.12491,0
33112,625,0.52951,26694,16,0.12576,0
33464,352,0.55494,26822,128,0.13251,0
33256,-208,0.53991,27302,480,0.15782,0
33240,-16,0.53876,27174,-128,0.15107,0
32679,-561,0.49823,27542,368,0.17047,0
32551,-128,0.48898,27910,368,0.18988,0
32055,-496,0.45315,28118,208,0.20084,0
31639,-416,0.42310,28086,-32,0.19916,0
30807,-832,0.36300,28054,-32,0.19747,0
30407,-400,0.33410,28486,432,0.22025,0
30247,-160,0.32255,28903,417,0.24224,0
30135,-112,0.31445,28582,-321,0.22531,0
30279,144,0.32486,28775,193,0.23549,0
30263,-16,0.32370,28214,-561,0.20591,0
30391,128,0.33295,28246,32,0.20759,0
31031,640,0.37918,28198,-48,0.20506,0
31911,880,0.44275,28214,16,0.20591,0
32583,672,0.49130,28422,208,0.21687,0
32984,401,0.52026,27990,-432,0.19409,0
33064,80,0.52604,27494,-496,0.16794,0
33224,160,0.53760,26534,-960,0.11732,0
34152,928,0.60464,26278,-256,0.10382,0
35192,1040,0.67977,25910,-368,0.08442,0
35912,720,0.73178,25046,-864,0.03886,0
36040,128,0.74102,24614,-432,0.01608,0
36104,64,0.74565,24309,-305,0.00000,0
35352,-752,0.69132,24726,417,0.02199,0
33992,-1360,0.59308,25670,944,0.07176,0
31799,-2193,0.43466,27366,1696,0.16119,0
30119,-1680,0.31330,28919,1553,0.24308,0
29719,-400,0.28440,29367,448,0.26670,0
29543,-176,0.27169,29383,16,0.26755,0
29271,-272,0.25204,28919,-464,0.24308,0
29703,432,0.28325,30039,1120,0.30214,0
30103,400,0.31214,30359,320,0.31901,0
30359,256,0.33064,29879,-480,0.29370,0
30359,0,0.33064,28791,-1088,0.23633,0
30935,576,0.37225,27990,-801,0.19409,0
31591,656,0.41963,26902,-1088,0.13673,0
32151,560,0.46009,27686,784,0.17806,0
33720,1569,0.57343,27494,-192,0.16794,0
35112,1392,0.67399,27718,224,0.17975,0
36168,1056,0.75027,28246,528,0.20759,0
35416,-752,0.69595,28358,112,0.21350,0
34456,-960,0.62660,29383,1025,0.26755,0
34312,-144,0.61620,29975,592,0.29876,0
34312,0,0.61620,30695,720,0.33673,0
33928,-384,0.58846,31831,1136,0.39663,0
32199,-1729,0.46356,32615,784,0.43796,0
30295,-1904,0.32601,32519,-96,0.43290,0
29847,-448,0.29365,31735,-784,0.39156,0
29975,128,0.30290,30359,-1376,0.31901,0
30055,80,0.30868,29095,-1264,0.25236,0
29447,-608,0.26475,27670,-1425,0.17722,0
30951,1504,0.37340,26934,-736,0.13841,0
31463,512,0.41039,26278,-656,0.10382,0
31879,416,0.44044,26598,320,0.12070,0
31687,-192,0.42657,28326,1728,0.21181,0
31159,-528,0.38843,28951,625,0.24477,0
31239,80,0.39421,29927,976,0.29623,0
31239,0,0.39421,31031,1104,0.35444,0
30359,-880,0.33064,31063,32,0.35613,0
29591,-768,0.27516,31047,-16,0.35529,0
29175,-416,0.24511,30215,-832,0.31142,0
28486,-689,0.19533,29783,-432,0.28864,0
28262,-224,0.17915,29767,-16,0.28779,0
27734,-528,0.14101,29927,160,0.29623,0
27350,-384,0.11327,30375,448,0.31985,0
27334,-16,0.11211,30631,256,0.33335,0
27734,400,0.14101,31543,912,0.38144,0
27638,-96,0.13407,32023,480,0.40675,0
26662,-976,0.06357,32615,592,0.43796,0
25782,-880,0.00000,33048,433,0.46080,0
26118,336,0.02427,32535,-513,0.43375,0
26678,560,0.06473,32087,-448,0.41012,0
28855,2177,0.22199,32455,368,0.42953,0
31159,2304,0.38843,32375,-80,0.42531,0
33496,2337,0.55725,31911,-464,0.40084,0
35352,1856,0.69132,31751,-160,0.39241,0
35880,528,0.72947,30679,-1072,0.33588,0
36905,1025,0.80351,30823,144,0.34347,0
36360,-545,0.76414,30039,-784,0.30214,0
35912,-448,0.73178,29815,-224,0.29032,0
35512,-400,0.70288,29959,144,0.29792,0
35384,-128,0.69364,29991,32,0.29960,0
35208,-176,0.68092,29559,-432,0.27683,0
34328,-880,0.61735,28951,-608,0.24477,0
33960,-368,0.59077,29623,672,0.28020,0
33016,-944,0.52257,29815,192,0.29032,0
32535,-481,0.48783,29815,0,0.29032,0
32071,-464,0.45431,30583,768,0.33082,0
31527,-544,0.41501,30439,-144,0.32323,0
31319,-208,0.39999,30903,464,0.34769,0
30727,-592,0.35722,32039,1136,0.40759,0
29703,-1024,0.28325,32727,688,0.44387,0
29431,-272,0.26360,32615,-112,0.43796,0
29607,176,0.27631,31991,-624,0.40506,0
30471,864,0.33873,32087,96,0.41012,0
30679,208,0.35375,32295,208,0.42109,0
31575,896,0.41848,31975,-320,0.40422,0
31527,-48,0.41501,31111,-864,0.35866,0
32119,592,0.45778,31255,144,0.36625,0
33048,929,0.52489,31207,-48,0.36372,0
33672,624,0.56996,31047,-160,0.35529,0
34088,416,0.60001,30407,-640,0.32154,0
34232,144,0.61042,30791,384,0.34179,0
33448,-784,0.55378,30615,-176,0.33251,0
32519,-929,0.48667,29831,-784,0.29117,0
31895,-624,0.44160,29911,80,0.29539,0
31911,16,0.44275,29495,-416,0.27345,0
32695,784,0.49939,28951,-544,0.24477,0
33496,801,0.55725,28406,-545,0.21603,0
34136,640,0.60348,28342,-64,0.21265,0
34088,-48,0.60001,28695,353,0.23127,0
33352,-736,0.54685,29047,352,0.24983,0
32904,-448,0.51448,29767,720,0.28779,0
31479,-1425,0.41154,30935,1168,0.34938,0
31383,-96,0.40461,31511,576,0.37975,0
32135,752,0.45893,33608,2097,0.49032,0
32183,48,0.46240,35032,1424,0.56541,0
32631,448,0.49476,35032,0,0.56541,0
32920,289,0.51564,35144,112,0.57132,0
32615,-305,0.49361,35560,416,0.59325,0
32343,-272,0.47396,35144,-416,0.57132,0
31863,-480,0.43928,34200,-944,0.52154,0
30887,-976,0.36878,32984,-1216,0.45742,0
29943,-944,0.30059,32503,-481,0.43206,0
29143,-800,0.24279,32199,-304,0.41603,0
29815,672,0.29134,32599,400,0.43712,0
30823,1008,0.36416,32471,-128,0.43037,0
32151,1328,0.46009,31351,-1120,0.37132,0
32407,256,0.47858,31335,-16,0.37047,0
31367,-1040,0.40345,31191,-144,0.36288,0
30439,-928,0.33642,31063,-128,0.35613,0
29783,-656,0.28903,31143,80,0.36035,0
29591,-192,0.27516,31271,128,0.36710,0
29607,16,0.27631,30935,-336,0.34938,0
30279,672,0.32486,32359,1424,0.42447,0
32231,1952,0.46587,33096,737,0.46333,0
34056,1825,0.59770,33336,240,0.47598,0
33688,-368,0.57112,33624,288,0.49117,0
33448,-240,0.55378,34264,640,0.52491,0
33032,-416,0.52373,34904,640,0.55866,0
32423,-609,0.47974,35432,528,0.58650,0
32055,-368,0.45315,35464,32,0.58819,0
32711,656,0.50054,35848,384,0.60844,0
33736,1025,0.57459,35144,-704,0.57132,0
33832,96,0.58152,34168,-976,0.51985,0
33192,-640,0.53529,33976,-192,0.50973,0
31495,-1697,0.41270,33224,-752,0.47008,0
30487,-1008,0.33988,31895,-1329,0.40000,0
30407,-80,0.33410,30887,-1008,0.34685,0
30407,0,0.33410,30183,-704,0.30973,0
30663,256,0.35260,29671,-512,0.28273,0
31111,448,0.38496,29255,-416,0.26080,0
31415,304,0.40692,28871,-384,0.24055,0
31207,-208,0.39189,28679,-192,0.23042,0
30167,-1040,0.31677,29031,352,0.24898,0
30087,-80,0.31099,30791,1760,0.34179,0
31847,1760,0.43813,30935,144,0.34938,0
33896,2049,0.58614,30423,-512,0.32238,0
33832,-64,0.58152,30039,-384,0.30214,0
33864,32,0.58383,30695,656,0.33673,0
34680,816,0.64278,32087,1392,0.41012,0
33784,-896,0.57805,32519,432,0.43290,0
32727,-1057,0.50170,33000,481,0.45827,0
30631,-2096,0.35029,33272,272,0.47261,0
28230,-2401,0.17684,33352,80,0.47683,0
27142,-1088,0.09824,34072,720,0.51479,0
26598,-544,0.05895,34984,912,0.56288,0
27750,1152,0.14217,34888,-96,0.55782,0
29831,2081,0.29249,36280,1392,0.63122,0
30759,928,0.35953,35320,-960,0.58060,0
30471,-288,0.33873,33560,-1760,0.48779,0
30471,0,0.33873,33704,144,0.49539,0
31127,656,0.38612,33192,-512,0.46839,0
31879,752,0.44044,33384,192,0.47851,0
33592,1713,0.56418,35256,1872,0.57722,0
34040,448,0.59655,35432,176,0.58650,0
33944,-96,0.58961,35480,48,0.58903,0
34168,224,0.60579,34824,-656,0.55444,0
33912,-256,0.58730,33768,-1056,0.49876,0
33160,-752,0.53298,34040,272,0.51310,0
32471,-689,0.48320,34536,496,0.53926,0
32824,353,0.50870,34104,-432,0.51648,0
33848,1024,0.58268,34184,80,0.52070,0
34328,480,0.61735,33704,-480,0.49539,0
34744,416,0.64740,32567,-1137,0.43543,0
34984,240,0.66474,31607,-960,0.38481,0
34248,-736,0.61157,30439,-1168,0.32323,0
32679,-1569,0.49823,29671,-768,0.28273,0
32824,145,0.50870,27862,-1809,0.18735,0
33192,368,0.53529,28550,688,0.22362,0
33224,32,0.53760,29447,897,0.27092,0
33064,-160,0.52604,29511,64,0.27429,0
33320,256,0.54454,29623,112,0.28020,0
33704,384,0.57227,30119,496,0.30635,0
34264,560,0.61273,31255,1136,0.36625,0
34504,240,0.63007,31671,416,0.38819,0
34504,0,0.63007,31895,224,0.40000,0
33800,-704,0.57921,32135,240,0.41265,0
34408,608,0.62313,32776,641,0.44645,0
35480,1072,0.70057,32984,208,0.45742,0
35928,448,0.73293,31911,-1073,0.40084,0
35816,-112,0.72484,31159,-752,0.36119,0
34904,-912,0.65896,30887,-272,0.34685,0
34280,-624,0.61388,31751,864,0.39241,0
32952,-1328,0.51795,31607,-144,0.38481,0
31527,-1425,0.41501,32455,848,0.42953,0
29479,-2048,0.26707,33512,1057,0.48526,0
27558,-1921,0.12830,34472,960,0.53588,0
27222,-336,0.10402,36088,1616,0.62109,0
27846,624,0.14910,36312,224,0.63290,0
29095,1249,0.23933,35848,-464,0.60844,0
29495,400,0.26822,35400,-448,0.58481,0
29863,368,0.29481,33432,-1968,0.48104,0
30599,736,0.34797,32792,-640,0.44730,0
31767,1168,0.43235,32183,-609,0.41519,0
32936,1169,0.51680,31079,-1104,0.35697,0
34072,1136,0.59886,30407,-672,0.32154,0
35336,1264,0.69017,30407,0,0.32154,0
36824,1488,0.79766,29607,-800,0.27936,0
37881,1057,0.87402,29751,144,0.28695,0
37721,-160,0.86246,29383,-368,0.26755,0
37193,-528,0.82432,29431,48,0.27008,0
36520,-673,0.77570,29639,208,0.28104,0
37417,897,0.84050,29415,-224,0.26923,0
36296,-1121,0.75952,30327,912,0.31732,0
34456,-1840,0.62660,32311,1984,0.42194,0
33416,-1040,0.55147,33400,1089,0.47936,0
31847,-1569,0.43813,34536,1136,0.53926,0
29383,-2464,0.26013,34568,32,0.54094,0
27878,-1505,0.15141,34856,288,0.55613,0
27078,-800,0.09362,35272,416,0.57806,0
28038,960,0.16297,35000,-272,0.56372,0
29367,1329,0.25898,35320,320,0.58060,0
30423,1056,0.33526,34600,-720,0.54263,0
31479,1056,0.41154,34248,-352,0.52407,0
31911,432,0.44275,34264,16,0.52491,0
31847,-64,0.43813,34824,560,0.55444,0
31079,-768,0.38265,34184,-640,0.52070,0
31143,64,0.38727,34152,-32,0.51901,0
32583,1440,0.49130,34136,-16,0.51817,0
34008,1425,0.59424,33576,-560,0.48864,0
34520,512,0.63122,32888,-688,0.45236,0
35064,544,0.67052,33160,272,0.46670,0
34888,-176,0.65781,33128,-32,0.46501,0
34520,-368,0.63122,33032,-96,0.45995,0
33928,-592,0.58846,34008,976,0.51142,0
33880,-48,0.58499,34504,496,0.53757,0
32567,-1313,0.49014,35064,560,0.56710,0
32199,-368,0.46356,35512,448,0.59072,0
30679,-1520,0.35375,35480,-32,0.58903,0
29431,-1248,0.26360,34824,-656,0.55444,0
29063,-368,0.23702,34424,-400,0.53335,0
29271,208,0.25204,34392,-32,0.53166,0
30055,784,0.30868,33944,-448,0.50804,0
31591,1536,0.41963,33704,-240,0.49539,0
32327,736,0.47280,33112,-592,0.46417,0
32872,545,0.51217,32407,-705,0.42700,0
33736,864,0.57459,32808,401,0.44814,0
34008,272,0.59424,32503,-305,0.43206,0
33592,-416,0.56418,32984,481,0.45742,0
32968,-624,0.51911,33160,176,0.46670,0
32407,-561,0.47858,33352,192,0.47683,0
31879,-528,0.44044,33080,-272,0.46248,0
32391,512,0.47743,33416,336,0.48020,0
33368,977,0.54800,33368,-48,0.47767,0
33704,336,0.57227,33624,256,0.49117,0
33448,-256,0.55378,33672,48,0.49370,0
33112,-336,0.52951,32888,-784,0.45236,0
33048,-64,0.52489,32615,-273,0.43796,0
33160,112,0.53298,32407,-208,0.42700,0
32503,-657,0.48552,31895,-512,0.40000,0
31655,-848,0.42426,32055,160,0.40844,0
32055,400,0.45315,32904,849,0.45320,0
32663,608,0.49707,33160,256,0.46670,0
33512,849,0.55840,33560,400,0.48779,0
34968,1456,0.66358,32503,-1057,0.43206,0
37129,2161,0.81969,31415,-1088,0.37469,0
38841,1712,0.94336,30535,-880,0.32829,0
39273,432,0.97457,29591,-944,0.27851,0
39609,336,0.99884,28807,-784,0.23717,0
38873,-736,0.94568,28438,-369,0.21772,0
37257,-1616,0.82894,29271,833,0.26164,0
34232,-3025,0.61042,30999,1728,0.35276,0
31175,-3057,0.38958,33304,2305,0.47429,0
31735,560,0.43004,35144,1840,0.57132,0
31991,256,0.44853,35448,304,0.58735,0
31591,-400,0.41963,35400,-48,0.58481,0
31271,-320,0.39652,36456,1056,0.64050,0
30247,-1024,0.32255,36248,-208,0.62953,0
29511,-736,0.26938,35352,-896,0.58228,0
29895,384,0.29712,34184,-1168,0.52070,0
30263,368,0.32370,33976,-208,0.50973,0
30375,112,0.33179,33288,-688,0.47345,0
30263,-112,0.32370,32711,-577,0.44303,0
30679,416,0.35375,32984,273,0.45742,0
31095,416,0.38380,32968,-16,0.45658,0
31127,32,0.38612,33240,272,0.47092,0
31927,800,0.44391,32599,-641,0.43712,0
33128,1201,0.53067,32519,-80,0.43290,0
34376,1248,0.62082,33624,1105,0.49117,0
34712,336,0.64509,33944,320,0.50804,0
35576,864,0.70751,33928,-16,0.50720,0
36104,528,0.74565,32968,-960,0.45658,0
34632,-1472,0.63931,31463,-1505,0.37722,0
34232,-400,0.61042,30407,-1056,0.32154,0
34920,688,0.66012,29687,-720,0.28358,0
35288,368,0.68670,29271,-416,0.26164,0
35704,416,0.71675,29367,96,0.26670,0
35192,-512,0.67977,29911,544,0.29539,0
34088,-1104,0.60001,30631,720,0.33335,0
32776,-1312,0.50524,31287,656,0.36794,0
31111,-1665,0.38496,33272,1985,0.47261,0
30263,-848,0.32370,34232,960,0.52323,0
30871,0,0.15936,33128,0,0.72869,1
30727,-144,0.13622,33064,-64,0.71382,1
30919,192,0.16707,33032,-32,0.70639,1
31335,416,0.23390,33256,224,0.75842,1
31847,512,0.31614,32631,-625,0.61324,1
32551,704,0.42924,32263,-368,0.52776,1
33336,785,0.55534,32295,32,0.53519,1
34120,784,0.68129,33672,1377,0.85505,1
34024,-96,0.66586,33160,-512,0.73612,1
34488,464,0.74040,32647,-513,0.61696,1
34488,0,0.74040,32135,-512,0.49803,1
34264,-224,0.70442,31319,-816,0.30848,1
34616,352,0.76096,31447,128,0.33821,1
34472,-144,0.73783,30679,-768,0.15981,1
33880,-592,0.64273,31287,608,0.30105,1
33416,-464,0.56819,31399,112,0.32706,1
32471,-945,0.41639,32455,1056,0.57236,1
31959,-512,0.33414,31863,-592,0.43484,1
31271,-688,0.22361,31911,48,0.44599,1
31047,-224,0.18763,32455,544,0.57236,1
30743,-304,0.13880,32824,369,0.65807,1
30855,112,0.15679,33256,432,0.75842,1
30871,16,0.15936,32984,-272,0.69524,1
31095,224,0.19534,32599,-385,0.60581,1
32135,1040,0.36241,32375,-224,0.55377,1
32471,336,0.41639,31911,-464,0.44599,1
33112,641,0.51936,31479,-432,0.34564,1
33640,528,0.60418,31399,-80,0.32706,1
34200,560,0.69414,31287,-112,0.30105,1
34744,544,0.78153,31095,-192,0.25645,1
35416,672,0.88948,31111,16,0.26016,1
35384,-32,0.88434,31575,464,0.36794,1
35384,0,0.88434,31687,112,0.39396,1
35032,-352,0.82779,32455,768,0.57236,1
34600,-432,0.75839,33000,545,0.69895,1
34104,-496,0.67871,33256,256,0.75842,1
33208,-896,0.53478,33672,416,0.85505,1
32455,-753,0.41382,32920,-752,0.68037,1
31815,-640,0.31100,32375,-545,0.55377,1
30919,-896,0.16707,31511,-864,0.35308,1
31383,464,0.24161,32407,896,0.56121,1
31543,160,0.26731,32439,32,0.56864,1
31415,-128,0.24675,32199,-240,0.51289,1
31847,432,0.31614,32023,-176,0.47201,1
32359,512,0.39839,31959,-64,0.45714,1
33032,673,0.50651,31927,-32,0.44971,1
33576,544,0.59390,31959,32,0.45714,1
34232,656,0.69928,31623,-336,0.37909,1
34968,736,0.81751,32199,576,0.51289,1
35256,288,0.86378,31911,-288,0.44599,1
35208,-48,0.85606,32135,224,0.49803,1
34264,-944,0.70442,32439,304,0.56864,1
34184,-80,0.69157,33128,689,0.72869,1
33896,-288,0.64530,32471,-657,0.57607,1
33400,-496,0.56562,32711,240,0.63182,1
32920,-480,0.48851,33336,625,0.77700,1
32231,-689,0.37783,33464,128,0.80674,1
31831,-400,0.31357,33576,112,0.83275,1
31511,-320,0.26217,33416,-160,0.79559,1
31495,-16,0.25960,33096,-320,0.72125,1
31655,160,0.28530,33112,16,0.72497,1
31799,144,0.30843,32808,-304,0.65436,1
32263,464,0.38297,32711,-97,0.63182,1
32407,144,0.40610,32375,-336,0.55377,1
33256,849,0.54249,32151,-224,0.50174,1
33208,-48,0.53478,32231,80,0.52033,1
33608,400,0.59904,30935,-1296,0.21928,1
34280,672,0.70699,31575,640,0.36794,1
34056,-224,0.67100,31303,-272,0.30476,1
34856,800,0.79952,30983,-320,0.23043,1
34920,64,0.80980,30983,0,0.23043,1
34712,-208,0.77639,31015,32,0.23786,1
35240,528,0.86120,31127,112,0.26388,1
34072,-1168,0.67357,30983,-144,0.23043,1
33608,-464,0.59904,31911,928,0.44599,1
33224,-384,0.53735,32487,576,0.57979,1
32599,-625,0.43695,32311,-176,0.53891,1
31895,-704,0.32386,32359,48,0.55006,1
31191,-704,0.21076,32359,0,0.55006,1
30727,-464,0.13622,32567,208,0.59837,1
30487,-240,0.09767,32567,0,0.59837,1
30663,176,0.12594,32583,16,0.60209,1
30983,320,0.17735,32167,-416,0.50546,1
31463,480,0.25446,32167,0,0.50546,1
31783,320,0.30586,31895,-272,0.44228,1
32263,480,0.38297,31655,-240,0.38653,1
33000,737,0.50137,31447,-208,0.33821,1
33816,816,0.63245,31367,-80,0.31963,1
34456,640,0.73526,31383,16,0.32334,1
34984,528,0.82008,31431,48,0.33449,1
34776,-208,0.78667,31303,-128,0.30476,1
34808,32,0.79181,31383,80,0.32334,1
34584,-224,0.75582,31607,224,0.37538,1
34040,-544,0.66843,31415,-192,0.33078,1
33384,-656,0.56305,32423,1008,0.56492,1
32679,-705,0.44980,33000,577,0.69895,1
32039,-640,0.34699,32583,-417,0.60209,1
31543,-496,0.26731,31911,-672,0.44599,1
30551,-992,0.10795,31255,-656,0.29361,1
31255,704,0.22104,30887,-368,0.20813,1
31463,208,0.25446,31495,608,0.34936,1
31399,-64,0.24418,31447,-48,0.33821,1
31399,0,0.24418,31607,160,0.37538,1
31511,112,0.26217,31479,-128,0.34564,1
31879,368,0.32129,31767,288,0.41254,1
32599,720,0.43695,31143,-624,0.26760,1
33240,641,0.53992,31063,-80,0.24901,1
33880,640,0.64273,30871,-192,0.20441,1
34296,416,0.70956,31159,288,0.27131,1
34680,384,0.77125,31063,-96,0.24901,1
35000,320,0.82265,31015,-48,0.23786,1
35400,400,0.88691,31351,336,0.31591,1
35160,-240,0.84835,31607,256,0.37538,1
34776,-384,0.78667,31703,96,0.39768,1
33944,-832,0.65301,32167,464,0.50546,1
33480,-464,0.57847,32263,96,0.52776,1
32711,-769,0.45494,32455,192,0.57236,1
32119,-592,0.35984,32311,-144,0.53891,1
31463,-656,0.25446,32535,224,0.59094,1
30887,-576,0.16193,32407,-128,0.56121,1
31159,272,0.20562,32407,0,0.56121,1
31015,-144,0.18249,33064,657,0.71382,1
31479,464,0.25703,33448,384,0.80302,1
31879,400,0.32129,32840,-608,0.66179,1
32375,496,0.40096,32327,-513,0.54262,1
33288,913,0.54763,32471,144,0.57607,1
33880,592,0.64273,31911,-560,0.44599,1
34344,464,0.71727,31751,-160,0.40883,1
34952,608,0.81494,31127,-624,0.26388,1
35640,688,0.92546,31543,416,0.36051,1
35528,-112,0.90747,31463,-80,0.34193,1
35272,-256,0.86635,31303,-160,0.30476,1
34168,-1104,0.68900,31527,224,0.35679,1
34424,256,0.73012,30967,-560,0.22671,1
33832,-592,0.63502,32263,1296,0.52776,1
32824,-1008,0.47309,31591,-672,0.37166,1
32647,-177,0.44466,32007,416,0.46829,1
32183,-464,0.37012,31719,-288,0.40139,1
31879,-304,0.32129,31671,-48,0.39024,1
31991,112,0.33928,32087,416,0.48688,1
31623,-368,0.28016,32375,288,0.55377,1
31543,-80,0.26731,32776,401,0.64692,1
31943,400,0.33157,32535,-241,0.59094,1
31271,-672,0.22361,32215,-320,0.51661,1
31431,160,0.24932,32151,-64,0.50174,1
31991,560,0.33928,31831,-320,0.42741,1
33000,1009,0.50137,31847,16,0.43113,1
33912,912,0.64787,32023,176,0.47201,1
34312,400,0.71213,31591,-432,0.37166,1
34408,96,0.72755,31175,-416,0.27503,1
34456,48,0.73526,30983,-192,0.23043,1
34136,-320,0.68386,31415,432,0.33078,1
34008,-128,0.66329,31063,-352,0.24901,1
33544,-464,0.58876,31399,336,0.32706,1
33560,16,0.59133,32295,896,0.53519,1
32567,-993,0.43181,32407,112,0.56121,1
32023,-544,0.34442,32471,64,0.57607,1
31319,-704,0.23133,32455,-16,0.57236,1
30535,-784,0.10538,32375,-80,0.55377,1
30311,-224,0.06940,32311,-64,0.53891,1
30183,-128,0.04884,32808,497,0.65436,1
30135,-48,0.04112,32856,48,0.66551,1
30359,224,0.07711,32824,-32,0.65807,1
30615,256,0.11823,33048,224,0.71010,1
31367,752,0.23904,31559,-1489,0.36423,1
32071,704,0.35213,31175,-384,0.27503,1
32952,881,0.49365,30871,-304,0.20441,1
33880,928,0.64273,30487,-384,0.11521,1
34280,400,0.70699,31047,560,0.24530,1
34616,336,0.76096,30599,-448,0.14123,1
34968,352,0.81751,31527,928,0.35679,1
34808,-160,0.79181,32519,992,0.58722,1
34936,128,0.81237,31719,-800,0.40139,1
34344,-592,0.71727,31735,16,0.40511,1
33912,-432,0.64787,32375,640,0.55377,1
33336,-576,0.55534,32567,192,0.59837,1
32567,-769,0.43181,32535,-32,0.59094,1
31943,-624,0.33157,32631,96,0.61324,1
31319,-624,0.23133,32776,145,0.64692,1
31015,-304,0.18249,33688,912,0.85877,1
31095,80,0.19534,33608,-80,0.84019,1
30487,-608,0.09767,33000,-608,0.69895,1
30791,304,0.14651,32695,-305,0.62811,1
31031,240,0.18506,32151,-544,0.50174,1
31767,736,0.30329,31831,-320,0.42741,1
32471,704,0.41639,31591,-240,0.37166,1
33064,593,0.51165,31399,-192,0.32706,1
34184,1120,0.69157,31431,32,0.33449,1
34824,640,0.79438,31239,-192,0.28990,1
36104,1280,1.00000,31991,752,0.46458,1
35368,-736,0.88177,31031,-960,0.24158,1
35080,-288,0.83550,31031,0,0.24158,1
34776,-304,0.78667,31287,256,0.30105,1
34264,-512,0.70442,31287,0,0.30105,1
33720,-544,0.61703,31431,144,0.33449,1
33160,-560,0.52707,31783,352,0.41626,1
32311,-849,0.39068,32263,480,0.52776,1
31687,-624,0.29044,32119,-144,0.49431,1
31351,-336,0.23647,32343,224,0.54634,1
31063,-288,0.19020,32263,-80,0.52776,1
30823,-240,0.15165,31943,-320,0.45343,1
31015,192,0.18249,32327,384,0.54262,1
31191,176,0.21076,32215,-112,0.51661,1
31879,688,0.32129,32215,0,0.51661,1
32567,688,0.43181,32840,625,0.66179,1
33496,929,0.58104,32071,-769,0.48316,1
34472,976,0.73783,31511,-560,0.35308,1
35000,528,0.82265,31383,-128,0.32334,1
35320,320,0.87406,31367,-16,0.31963,1
35544,224,0.91004,31303,-64,0.30476,1
35880,336,0.96402,31687,384,0.39396,1
35880,0,0.96402,31687,0,0.39396,1
35944,64,0.97430,31527,-160,0.35679,1
35864,-80,0.96145,31751,224,0.40883,1
34632,-1232,0.76353,32055,304,0.47944,1
33704,-928,0.61446,32311,256,0.53891,1
32840,-864,0.47566,32071,-240,0.48316,1
31991,-849,0.33928,32215,144,0.51661,1
30919,-1072,0.16707,32343,128,0.54634,1
30087,-832,0.03341,32263,-80,0.52776,1
29991,-96,0.01799,32487,224,0.57979,1
30103,112,0.03598,32311,-176,0.53891,1
30311,208,0.06940,32343,32,0.54634,1
30887,576,0.16193,31927,-416,0.44971,1
31927,1040,0.32900,31911,-16,0.44599,1
32263,336,0.38297,31703,-208,0.39768,1
32679,416,0.44980,31847,144,0.43113,1
33432,753,0.57076,31207,-640,0.28246,1
34520,1088,0.74554,31095,-112,0.25645,1
34680,160,0.77125,31655,560,0.38653,1
34952,272,0.81494,31607,-48,0.37538,1
35576,624,0.91518,31479,-128,0.34564,1
34984,-592,0.82008,31591,112,0.37166,1
34520,-464,0.74554,31703,112,0.39768,1
34712,192,0.77639,32391,688,0.55749,1
32808,-1904,0.47052,32840,449,0.66179,1
32904,96,0.48594,32952,112,0.68780,1
32215,-689,0.37526,32647,-305,0.61696,1
31527,-688,0.26474,32551,-96,0.59466,1
31767,240,0.30329,32551,0,0.59466,1
30983,-784,0.17735,32615,64,0.60952,1
31111,128,0.19791,31847,-768,0.43113,1
31351,240,0.23647,32343,496,0.54634,1
31655,304,0.28530,31943,-400,0.45343,1
32183,528,0.37012,31991,48,0.46458,1
32808,625,0.47052,31655,-336,0.38653,1
32792,-16,0.46795,31319,-336,0.30848,1
33816,1024,0.63245,31175,-144,0.27503,1
34344,528,0.71727,30983,-192,0.23043,1
34776,432,0.78667,30727,-256,0.17096,1
34952,176,0.81494,30663,-64,0.15610,1
34904,-48,0.80723,29991,-672,0.00000,1
34536,-368,0.74811,30695,704,0.16353,1
33992,-544,0.66072,30743,48,0.17468,1
33464,-528,0.57590,31111,368,0.26016,1
32904,-560,0.48594,31847,736,0.43113,1
32055,-849,0.34956,31671,-176,0.39024,1
31255,-800,0.22104,31367,-304,0.31963,1
30807,-448,0.14908,31623,256,0.37909,1
29879,-928,0.00000,31767,144,0.41254,1
30487,608,0.09767,31767,0,0.41254,1
30743,256,0.13880,31847,80,0.43113,1
30887,144,0.16193,31655,-192,0.38653,1
31271,384,0.22361,31255,-400,0.29361,1
31063,-208,0.19020,31431,176,0.33449,1
31927,864,0.32900,31031,-400,0.24158,1
33320,1393,0.55277,31431,400,0.33449,1
34200,880,0.69414,30839,-592,0.19698,1
34664,464,0.76867,30311,-528,0.07433,1
34824,160,0.79438,30055,-256,0.01487,1
35064,240,0.83293,30263,208,0.06318,1
35064,0,0.83293,31047,784,0.24530,1
34792,-272,0.78924,31463,416,0.34193,1
34456,-336,0.73526,31799,336,0.41998,1
33384,-1072,0.56305,32519,720,0.58722,1
33992,608,0.66072,33368,849,0.78444,1
32519,-1473,0.42410,32711,-657,0.63182,1
32647,128,0.44466,32375,-336,0.55377,1
31463,-1184,0.25446,31655,-720,0.38653,1
31511,48,0.26217,31079,-576,0.25273,1
31479,-32,0.25703,31335,256,0.31220,1
31719,240,0.29558,30983,-352,0.23043,1
31783,64,0.30586,31335,352,0.31220,1
31495,-288,0.25960,31463,128,0.34193,1
31911,416,0.32643,31127,-336,0.26388,1
32471,560,0.41639,30887,-240,0.20813,1
32808,337,0.47052,30631,-256,0.14866,1
33032,224,0.50651,30503,-128,0.11893,1
33576,544,0.59390,30695,192,0.16353,1
34056,480,0.67100,30423,-272,0.10035,1
35384,1328,0.88434,30327,-96,0.07805,1
34728,-656,0.77896,30439,112,0.10407,1
34712,-16,0.77639,30855,416,0.20070,1
34168,-544,0.68900,30279,-576,0.06690,1
33608,-560,0.59904,31575,1296,0.36794,1
32920,-688,0.48851,32695,1120,0.62811,1
32824,-96,0.47309,32727,32,0.63554,1
32311,-513,0.39068,32231,-496,0.52033,1
31495,-816,0.25960,32519,288,0.58722,1
31047,-448,0.18763,32856,337,0.66551,1
30855,-192,0.15679,32776,-80,0.64692,1
30279,-576,0.06426,32167,-609,0.50546,1
30023,-256,0.02313,31719,-448,0.40139,1
30087,64,0.03341,31559,-160,0.36423,1
30951,864,0.17221,31655,96,0.38653,1
31751,800,0.30072,32039,384,0.47573,1
32359,608,0.39839,31959,-80,0.45714,1
33192,833,0.53221,31815,-144,0.42369,1
33800,608,0.62988,31687,-128,0.39396,1
34200,400,0.69414,31383,-304,0.32334,1
34344,144,0.71727,31063,-320,0.24901,1
34552,208,0.75068,31079,16,0.25273,1
34520,-32,0.74554,31159,80,0.27131,1
34072,-448,0.67357,31399,240,0.32706,1
33736,-336,0.61960,31735,336,0.40511,1
33224,-512,0.53735,32039,304,0.47573,1
32583,-641,0.43438,32071,32,0.48316,1
32135,-448,0.36241,31975,-96,0.46086,1
31255,-880,0.22104,31863,-112,0.43484,1
30919,-336,0.16707,31847,-16,0.43113,1
30775,-144,0.14394,32039,192,0.47573,1
31047,272,0.18763,32776,737,0.64692,1
31271,224,0.22361,31927,-849,0.44971,1
31575,304,0.27245,32151,224,0.50174,1
31943,368,0.33157,31991,-160,0.46458,1
32487,544,0.41896,31943,-48,0.45343,1
33048,561,0.50908,31159,-784,0.27131,1
33608,560,0.59904,31079,-80,0.25273,1
34168,560,0.68900,31671,592,0.39024,1
33768,-400,0.62474,30775,-896,0.18211,1
34568,800,0.75325,30471,-304,0.11150,1
34856,288,0.79952,30679,208,0.15981,1
34648,-208,0.76610,30791,112,0.18583,1
34216,-432,0.69671,30951,160,0.22300,1
33704,-512,0.61446,31511,560,0.35308,1
33288,-416,0.54763,31367,-144,0.31963,1
32423,-865,0.40867,31047,-320,0.24530,1
31591,-832,0.27502,31175,128,0.27503,1
31063,-528,0.19020,31671,496,0.39024,1
30567,-496,0.11052,31703,32,0.39768,1
31191,624,0.21076,31735,32,0.40511,1
30247,-944,0.05912,31623,-112,0.37909,1
30135,-112,0.04112,31655,32,0.38653,1
30631,496,0.12080,31671,16,0.39024,1
31431,800,0.24932,31895,224,0.44228,1
31943,512,0.33157,31719,-176,0.40139,1
32615,672,0.43952,31415,-304,0.33078,1
33272,657,0.54506,31511,96,0.35308,1
33704,432,0.61446,31303,-208,0.30476,1
34184,480,0.69157,31047,-256,0.24530,1
34568,384,0.75325,30935,-112,0.21928,1
34776,208,0.78667,31095,160,0.25645,1
34664,-112,0.76867,31367,272,0.31963,1
34104,-560,0.67871,31111,-256,0.26016,1
33800,-304,0.62988,30855,-256,0.20070,1
33176,-624,0.52964,31751,896,0.40883,1
32631,-545,0.44209,32183,432,0.50918,1
31959,-672,0.33414,32631,448,0.61324,1
31495,-464,0.25960,32103,-528,0.49059,1
30951,-544,0.17221,32295,192,0.53519,1
30887,-64,0.16193,32167,-128,0.50546,1
30775,-112,0.14394,31847,-320,0.43113,1
31031,256,0.18506,31575,-272,0.36794,1
31575,544,0.27245,31511,-64,0.35308,1
32872,1297,0.48080,31383,-128,0.32334,1
33560,688,0.59133,31159,-224,0.27131,1
34088,528,0.67614,30999,-160,0.23415,1
34216,128,0.69671,31399,400,0.32706,1
34424,208,0.73012,31463,64,0.34193,1
34488,64,0.74040,31623,160,0.37909,1
34696,208,0.77382,30727,-896,0.17096,1
34648,-48,0.76610,31175,448,0.27503,1
34632,-16,0.76353,31447,272,0.33821,1
34120,-512,0.68129,31063,-384,0.24901,1
33704,-416,0.61446,31495,432,0.34936,1
33224,-480,0.53735,32071,576,0.48316,1
32551,-673,0.42924,32071,0,0.48316,1
32087,-464,0.35470,31975,-96,0.46086,1
31623,-464,0.28016,32151,176,0.50174,1
31351,-272,0.23647,32263,112,0.52776,1
31159,-192,0.20562,32359,96,0.55006,1
31031,-128,0.18506,31559,-800,0.36423,1
31063,32,0.19020,31655,96,0.38653,1
31207,144,0.21333,31623,-32,0.37909,1
31463,256,0.25446,31223,-400,0.28618,1
31767,304,0.30329,31207,-16,0.28246,1
32423,656,0.40867,31127,-80,0.26388,1
33112,689,0.51936,30743,-384,0.17468,1
33704,592,0.61446,30647,-96,0.15238,1
34456,752,0.73526,30551,-96,0.13008,1
34536,80,0.74811,30919,368,0.21556,1
34696,160,0.77382,31431,512,0.33449,1
34424,-272,0.73012,31335,-96,0.31220,1
34056,-368,0.67100,31543,208,0.36051,1
33128,-928,0.52193,31943,400,0.45343,1
33048,-80,0.50908,32920,977,0.68037,1
32599,-449,0.43695,33128,208,0.72869,1
32151,-448,0.36498,32984,-144,0.69524,1
31751,-400,0.30072,32776,-208,0.64692,1
31095,-656,0.19534,32856,80,0.66551,1
30807,-288,0.14908,33080,224,0.71754,1
31351,544,0.23647,32904,-176,0.67666,1
31223,-128,0.21590,33704,800,0.86249,1
31223,0,0.21590,34296,592,1.00000,1
31911,688,0.32643,33384,-912,0.78815,1
32727,816,0.45751,32856,-528,0.66551,1
33448,721,0.57333,31623,-1233,0.37909,1
33512,64,0.58361,31639,16,0.38281,1
34488,976,0.74040,32071,432,0.48316,1
34520,32,0.74554,32103,32,0.49059,1
34600,80,0.75839,31991,-112,0.46458,1
34648,48,0.76610,31847,-144,0.43113,1
34552,-96,0.75068,31671,-176,0.39024,1
34312,-240,0.71213,31543,-128,0.36051,1
33688,-624,0.61189,32135,592,0.49803,1
33192,-496,0.53221,31431,-704,0.33449,1
32423,-769,0.40867,32407,976,0.56121,1
31703,-720,0.29301,32215,-192,0.51661,1
31143,-560,0.20305,32087,-128,0.48688,1
30775,-368,0.14394,32103,16,0.49059,1
30647,-128,0.12337,32039,-64,0.47573,1
30311,-336,0.06940,31879,-160,0.43856,1
30519,208,0.10281,31799,-80,0.41998,1
30967,448,0.17478,32055,256,0.47944,1
31559,592,0.26988,31511,-544,0.35308,1
32263,704,0.38297,31351,-160,0.31591,1
33016,753,0.50394,31303,-48,0.30476,1
33480,464,0.57847,30855,-448,0.20070,1
34056,576,0.67100,30567,-288,0.13380,1
34104,48,0.67871,30519,-48,0.12265,1
35240,1136,0.86120,30647,128,0.15238,1
34968,-272,0.81751,30775,128,0.18211,1
34632,-336,0.76353,30935,160,0.21928,1
33656,-976,0.60675,30919,-16,0.21556,1
33704,48,0.61446,31559,640,0.36423,1
32711,-993,0.45494,31863,304,0.43484,1
32247,-464,0.38040,31671,-192,0.39024,1
32023,-224,0.34442,31719,48,0.40139,1
31639,-384,0.28273,31751,32,0.40883,1
32055,416,0.34956,31671,-80,0.39024,1
31031,-1024,0.18506,32135,464,0.49803,1
31303,272,0.22876,32215,80,0.51661,1
31639,336,0.28273,32151,-64,0.50174,1
31911,272,0.32643,31895,-256,0.44228,1
31927,16,0.32900,31319,-576,0.30848,1
32295,368,0.38811,30903,-416,0.21185,1
32695,400,0.45237,30679,-224,0.15981,1
33128,433,0.52193,30519,-160,0.12265,1
33448,320,0.57333,30407,-112,0.09663,1
33816,368,0.63245,29991,-416,0.00000,1
34136,320,0.68386,30279,288,0.06690,1
34376,240,0.72241,30455,176,0.10778,1
34264,-112,0.70442,30967,512,0.22671,1
34088,-176,0.67614,30983,16,0.23043,1
33496,-592,0.58104,31383,400,0.32334,1
32808,-688,0.47052,31847,464,0.43113,1
32135,-673,0.36241,32183,336,0.50918,1
31479,-656,0.25703,32391,208,0.55749,1
30935,-544,0.16964,32583,192,0.60209,1
30727,-208,0.13622,32247,-336,0.52404,1
30887,160,0.16193,32023,-224,0.47201,1
31223,336,0.21590,32071,48,0.48316,1
31319,96,0.23133,32151,80,0.50174,1
31831,512,0.31357,33032,881,0.70639,1
32087,256,0.35470,32647,-385,0.61696,1
32279,192,0.38554,32135,-512,0.49803,1
32631,352,0.44209,31367,-768,0.31963,1
33224,593,0.53735,31047,-320,0.24530,1
32808,-416,0.47052,30983,-64,0.23043,1
34040,1232,0.66843,30919,-64,0.21556,1
34520,480,0.74554,31399,480,0.32706,1
34312,-208,0.71213,31047,-352,0.24530,1
34376,64,0.72241,31991,944,0.46458,1
34120,-256,0.68129,31287,-704,0.30105,1
33768,-352,0.62474,32327,1040,0.54262,1
33160,-608,0.52707,32295,-32,0.53519,1
32391,-769,0.40353,32151,-144,0.50174,1
31511,-880,0.26217,32247,96,0.52404,1
30647,-864,0.12337,32695,448,0.62811,1
30455,-192,0.09253,33368,673,0.78444,1
30247,-208,0.05912,33192,-176,0.74355,1
30343,96,0.07454,33288,96,0.76585,1
30535,192,0.10538,33208,-80,0.74727,1
30935,400,0.16964,32872,-336,0.66922,1
31671,736,0.28787,32135,-737,0.49803,1
32135,464,0.36241,31623,-512,0.37909,1
32647,512,0.44466,31479,-144,0.34564,1
33368,721,0.56048,31431,-48,0.33449,1
34120,752,0.68129,31271,-160,0.29733,1
34952,832,0.81494,31079,-192,0.25273,1
34472,-480,0.73783,30855,-224,0.20070,1
34488,16,0.74040,30903,48,0.21185,1
34088,-400,0.67614,30951,48,0.22300,1
33816,-272,0.63245,30935,-16,0.21928,1
33224,-592,0.53735,31591,656,0.37166,1
32455,-769,0.41382,32231,640,0.52033,1
31703,-752,0.29301,32039,-192,0.47573,1
31031,-672,0.18506,32279,240,0.53148,1
30743,-288,0.13880,32263,-16,0.52776,1
30631,-112,0.12080,32327,64,0.54262,1
32551,0,0.40349,32679,0,0.49052,0
32135,-416,0.36203,34088,1409,0.61830,0
32615,480,0.40987,34552,464,0.66038,0
32407,-208,0.38914,35016,464,0.70246,0
33080,673,0.45620,35032,16,0.70391,0
33432,352,0.49128,34504,-528,0.65603,0
33624,192,0.51041,34152,-352,0.62410,0
33208,-416,0.46896,34184,32,0.62701,0
33528,320,0.50085,33416,-768,0.55736,0
33816,288,0.52955,33112,-304,0.52979,0
33496,-320,0.49766,32695,-417,0.49197,0
32711,-785,0.41943,32135,-560,0.44119,0
32119,-592,0.36044,31879,-256,0.41797,0
30775,-1344,0.22651,31783,-96,0.40927,0
29767,-1008,0.12606,30919,-864,0.33092,0
29223,-544,0.07185,31863,944,0.41652,0
29287,64,0.07823,32359,496,0.46150,0
30407,1120,0.18984,32776,417,0.49932,0
31495,1088,0.29826,33784,1008,0.59073,0
31735,240,0.32217,33768,-16,0.58928,0
33032,1297,0.45142,33928,160,0.60379,0
34504,1472,0.59811,33720,-208,0.58493,0
36280,1776,0.77509,33672,-48,0.58057,0
37993,1713,0.94579,33656,-16,0.57912,0
38537,544,1.00000,33016,-640,0.52108,0
37865,-672,0.93303,31527,-1489,0.38605,0
36264,-1601,0.77349,30247,-1280,0.26997,0
34840,-1424,0.63159,30455,208,0.28884,0
33608,-1232,0.50882,30983,528,0.33672,0
31943,-1665,0.34290,32023,1040,0.43103,0
30407,-1536,0.18984,31975,-48,0.42668,0
30151,-256,0.16432,32423,448,0.46731,0
30567,416,0.20578,33112,689,0.52979,0
30743,176,0.22332,33464,352,0.56171,0
30679,-64,0.21694,32599,-865,0.48327,0
30727,48,0.22172,32343,-256,0.46005,0
30375,-352,0.18665,32199,-144,0.44699,0
29207,-1168,0.07025,32279,80,0.45425,0
29879,672,0.13722,31367,-912,0.37154,0
30439,560,0.19302,30903,-464,0.32946,0
31223,784,0.27115,32391,1488,0.46441,0
32039,816,0.35247,32711,320,0.49343,0
32904,865,0.43866,33224,513,0.53995,0
33848,944,0.53274,33336,112,0.55010,0
34632,784,0.61086,33816,480,0.59363,0
34344,-288,0.58216,34456,640,0.65167,0
34072,-272,0.55506,33384,-1072,0.55446,0
34552,480,0.60289,33048,-336,0.52399,0
34072,-480,0.55506,33304,256,0.54720,0
33464,-608,0.49447,33368,64,0.55301,0
32103,-1361,0.35884,33736,368,0.58638,0
32631,528,0.41146,35432,1696,0.74018,0
31255,-1376,0.27434,36536,1104,0.84030,0
30775,-480,0.22651,37097,561,0.89118,0
31063,288,0.25521,37433,336,0.92165,0
30951,-112,0.24405,36696,-737,0.85481,0
30359,-592,0.18505,35464,-1232,0.74309,0
31639,1280,0.31261,34312,-1152,0.63861,0
31495,-144,0.29826,32535,-1777,0.47746,0
31991,496,0.34768,30615,-1920,0.30335,0
32776,785,0.42591,29687,-928,0.21919,0
33640,864,0.51201,29655,-32,0.21629,0
34776,1136,0.62521,29895,240,0.23805,0
35464,688,0.69377,31175,1280,0.35413,0
36744,1280,0.82133,32135,960,0.44119,0
35656,-1088,0.71290,33032,897,0.52254,0
34872,-784,0.63478,33704,672,0.58348,0
33656,-1216,0.51360,33256,-448,0.54285,0
33176,-480,0.46577,32872,-384,0.50803,0
32311,-865,0.37957,32551,-321,0.47892,0
31095,-1216,0.25840,33064,513,0.52544,0
30983,-112,0.24723,33864,800,0.59799,0
30999,16,0.24883,34136,272,0.62265,0
31767,768,0.32536,33928,-208,0.60379,0
31127,-640,0.26158,33032,-896,0.52254,0
31639,512,0.31261,32263,-769,0.45280,0
32167,528,0.36522,31191,-1072,0.35558,0
32423,256,0.39073,28999,-2192,0.15680,0
32503,80,0.39870,28326,-673,0.09576,0
32343,-160,0.38276,28534,208,0.11463,0
32583,240,0.40668,29207,673,0.17566,0
32583,0,0.40668,30551,1344,0.29754,0
32840,257,0.43229,31943,1392,0.42378,0
33448,608,0.49287,32840,897,0.50512,0
33896,448,0.53752,33304,464,0.54720,0
34456,560,0.59332,33624,320,0.57622,0
34984,528,0.64594,33672,48,0.58057,0
35160,176,0.66348,34920,1248,0.69375,0
35560,400,0.70334,34856,-64,0.68795,0
35544,-16,0.70174,33256,-1600,0.54285,0
34696,-848,0.61724,32519,-737,0.47601,0
34552,-144,0.60289,32151,-368,0.44264,0
33368,-1184,0.48490,31959,-192,0.42523,0
32872,-496,0.43548,31783,-176,0.40927,0
33352,480,0.48331,31527,-256,0.38605,0
33320,-32,0.48012,31767,240,0.40782,0
32311,-1009,0.37957,32599,832,0.48327,0
31527,-784,0.30144,32808,209,0.50222,0
31479,-48,0.29666,32968,160,0.51673,0
31719,240,0.32058,33688,720,0.58203,0
31623,-96,0.31101,34792,1104,0.68214,0
30807,-816,0.22970,35640,848,0.75905,0
31191,384,0.26796,36680,1040,0.85336,0
32647,1456,0.41305,37209,529,0.90133,0
33896,1249,0.53752,36312,-897,0.81999,0
33240,-656,0.47215,34696,-1616,0.67344,0
32776,-464,0.42591,32904,-1792,0.51093,0
32856,80,0.43388,32231,-673,0.44990,0
32583,-273,0.40668,32007,-224,0.42958,0
31847,-736,0.33333,31543,-464,0.38750,0
31095,-752,0.25840,31447,-96,0.37880,0
30983,-112,0.24723,31575,128,0.39041,0
30279,-704,0.17708,31799,224,0.41072,0
30295,16,0.17867,33064,1265,0.52544,0
30407,112,0.18984,33672,608,0.58057,0
30807,400,0.22970,33880,208,0.59944,0
31063,256,0.25521,33720,-160,0.58493,0
31287,224,0.27753,33640,-80,0.57767,0
31079,-208,0.25680,33464,-176,0.56171,0
31783,704,0.32696,33240,-224,0.54140,0
32583,800,0.40668,34312,1072,0.63861,0
33992,1409,0.54709,33960,-352,0.60669,0
35848,1856,0.73204,32535,-1425,0.47746,0
37305,1457,0.87723,30327,-2208,0.27723,0
37945,640,0.94101,29271,-1056,0.18146,0
37865,-80,0.93303,28807,-464,0.13939,0
37049,-816,0.85172,28999,192,0.15680,0
36216,-833,0.76871,29655,656,0.21629,0
35688,-528,0.71609,29735,80,0.22354,0
33832,-1856,0.53114,31495,1760,0.38315,0
31911,-1921,0.33971,30599,-896,0.30190,0
31239,-672,0.27275,30967,368,0.33527,0
31479,240,0.29666,31111,144,0.34833,0
30791,-688,0.22810,31895,784,0.41943,0
30183,-608,0.16751,32199,304,0.44699,0
29991,-192,0.14838,32679,480,0.49052,0
29815,-176,0.13084,32023,-656,0.43103,0
29479,-336,0.09736,32519,496,0.47601,0
29591,112,0.10852,32647,128,0.48762,0
30327,736,0.18186,32936,289,0.51383,0
31543,1216,0.30304,33048,112,0.52399,0
33032,1489,0.45142,33208,160,0.53850,0
34232,1200,0.57100,32936,-272,0.51383,0
34792,560,0.62681,31991,-945,0.42813,0
35352,560,0.68261,31511,-480,0.38460,0
35752,400,0.72247,31895,384,0.41943,0
36168,416,0.76393,32535,640,0.47746,0
36552,384,0.80219,33208,673,0.53850,0
36152,-400,0.76233,33144,-64,0.53269,0
35048,-1104,0.65232,32711,-433,0.49343,0
34248,-800,0.57260,32087,-624,0.43684,0
33560,-688,0.50404,31623,-464,0.39476,0
32135,-1425,0.36203,31031,-592,0.34107,0
30999,-1136,0.24883,31655,624,0.39766,0
30439,-560,0.19302,32583,928,0.48182,0
30183,-256,0.16751,33272,689,0.54430,0
30039,-144,0.15316,34200,928,0.62846,0
30407,368,0.18984,35256,1056,0.72422,0
31543,1136,0.30304,35368,112,0.73438,0
32423,880,0.39073,34408,-960,0.64732,0
34088,1665,0.55665,33224,-1184,0.53995,0
35224,1136,0.66986,32279,-945,0.45425,0
35768,544,0.72407,30359,-1920,0.28013,0
36280,512,0.77509,29383,-976,0.19162,0
35096,-1184,0.65710,28759,-624,0.13503,0
33688,-1408,0.51679,29527,768,0.20468,0
33160,-528,0.46418,30775,1248,0.31786,0
32679,-481,0.41624,32167,1392,0.44409,0
32679,0,0.41624,33080,913,0.52689,0
32359,-320,0.38435,33288,208,0.54575,0
31703,-656,0.31898,32936,-352,0.51383,0
31511,-192,0.29985,33128,192,0.53124,0
30823,-688,0.23129,33768,640,0.58928,0
30663,-160,0.21535,34200,432,0.62846,0
30631,-32,0.21216,34728,528,0.67634,0
30695,64,0.21854,35528,800,0.74889,0
30775,80,0.22651,35864,336,0.77936,0
31431,656,0.29188,35800,-64,0.77356,0
32071,640,0.35566,35272,-528,0.72567,0
32391,320,0.38754,33544,-1728,0.56897,0
32535,144,0.40189,31751,-1793,0.40637,0
32856,321,0.43388,30903,-848,0.32946,0
32615,-241,0.40987,30663,-240,0.30770,0
33208,593,0.46896,31559,896,0.38895,0
33688,480,0.51679,32023,464,0.43103,0
34552,864,0.60289,32439,416,0.46876,0
34952,400,0.64275,32535,96,0.47746,0
35352,400,0.68261,32904,369,0.51093,0
35080,-272,0.65551,33336,432,0.55010,0
34520,-560,0.59970,33064,-272,0.52544,0
34632,112,0.61086,33880,816,0.59944,0
33640,-992,0.51201,34200,320,0.62846,0
32455,-1185,0.39392,34200,0,0.62846,0
31239,-1216,0.27275,33944,-256,0.60524,0
30055,-1184,0.15476,32695,-1249,0.49197,0
29575,-480,0.10693,32407,-288,0.46586,0
30151,576,0.16432,32391,-16,0.46441,0
30679,528,0.21694,31607,-784,0.39331,0
31399,720,0.28869,31863,256,0.41652,0
32055,656,0.35406,31783,-80,0.40927,0
33000,945,0.44823,32968,1185,0.51673,0
33752,752,0.52317,33336,368,0.55010,0
34360,608,0.58376,32968,-368,0.51673,0
34920,560,0.63956,32375,-593,0.46295,0
34344,-576,0.58216,31895,-480,0.41943,0
34936,592,0.64116,30983,-912,0.33672,0
34872,-64,0.63478,30039,-944,0.25111,0
34728,-144,0.62043,30231,192,0.26852,0
34760,32,0.62362,29511,-720,0.20323,0
33448,-1312,0.49287,29047,-464,0.16115,0
32343,-1105,0.38276,30487,1440,0.29174,0
31575,-768,0.30623,31383,896,0.37299,0
30487,-1088,0.19781,31575,192,0.39041,0
30215,-272,0.17070,32311,736,0.45715,0
29927,-288,0.14200,32711,400,0.49343,0
29591,-336,0.10852,33848,1137,0.59654,0
29239,-352,0.07344,35544,1696,0.75034,0
30695,1456,0.21854,34792,-752,0.68214,0
31527,832,0.30144,34408,-384,0.64732,0
33128,1601,0.46099,33544,-864,0.56897,0
34568,1440,0.60448,31735,-1809,0.40492,0
35944,1376,0.74160,30039,-1696,0.25111,0
37369,1425,0.88361,29399,-640,0.19307,0
37961,592,0.94260,28951,-448,0.15244,0
37769,-192,0.92347,29255,304,0.18001,0
37145,-624,0.86129,28887,-368,0.14664,0
36104,-1041,0.75755,28903,16,0.14809,0
35208,-896,0.66826,29847,944,0.23370,0
32407,-2801,0.38914,31319,1472,0.36719,0
31255,-1152,0.27434,33128,1809,0.53124,0
30791,-464,0.22810,34008,880,0.61105,0
30599,-192,0.20897,34376,368,0.64442,0
31111,512,0.25999,34184,-192,0.62701,0
29431,-1680,0.09258,34680,496,0.67199,0
28502,-929,0.00000,34488,-192,0.65458,0
28502,0,0.00000,34808,320,0.68359,0
29335,833,0.08301,35640,832,0.75905,0
30231,896,0.17230,36408,768,0.82869,0
31063,832,0.25521,35928,-480,0.78516,0
31895,832,0.33812,35976,48,0.78952,0
31879,-16,0.33652,35480,-496,0.74454,0
31895,16,0.33812,34536,-944,0.65893,0
32647,752,0.41305,33336,-1200,0.55010,0
33880,1233,0.53592,32872,-464,0.50803,0
35208,1328,0.66826,32135,-737,0.44119,0
35464,256,0.69377,31671,-464,0.39911,0
36360,896,0.78306,32631,960,0.48617,0
34824,-1536,0.62999,34712,2081,0.67489,0
34536,-288,0.60130,34728,16,0.67634,0
33864,-672,0.53433,34024,-704,0.61250,0
33256,-608,0.47374,33496,-528,0.56461,0
31703,-1553,0.31898,33048,-448,0.52399,0
31447,-256,0.29347,32840,-208,0.50512,0
31751,304,0.32377,32711,-129,0.49343,0
32583,832,0.40668,32343,-368,0.46005,0
32199,-384,0.36841,31975,-368,0.42668,0
33544,1345,0.50244,30263,-1712,0.27142,0
35288,1744,0.67623,28679,-1584,0.12778,0
35448,160,0.69218,28054,-625,0.07110,0
35736,288,0.72088,27270,-784,0.00000,0
34888,-848,0.63637,28070,800,0.07255,0
34072,-816,0.55506,29895,1825,0.23805,0
33560,-512,0.50404,31671,1776,0.39911,0
33528,-32,0.50085,33192,1521,0.53705,0
33048,-480,0.45301,33800,608,0.59218,0
32519,-529,0.40030,33976,176,0.60814,0
32711,192,0.41943,33304,-672,0.54720,0
32711,0,0.41943,32119,-1185,0.43974,0
33528,817,0.50085,32856,737,0.50657,0
33160,-368,0.46418,33224,368,0.53995,0
33448,288,0.49287,32439,-785,0.46876,0
33864,416,0.53433,32279,-160,0.45425,0
33432,-432,0.49128,31399,-880,0.37444,0
32727,-705,0.42103,30919,-480,0.33092,0
32840,113,0.43229,30311,-608,0.27578,0
32840,0,0.43229,30567,256,0.29899,0
33128,288,0.46099,31943,1376,0.42378,0
32679,-449,0.41624,33160,1217,0.53414,0
32599,-80,0.40827,33576,416,0.57187,0
33064,465,0.45461,33096,-480,0.52834,0
33448,384,0.49287,33096,0,0.52834,0
32984,-464,0.44664,33128,32,0.53124,0
32215,-769,0.37000,33656,528,0.57912,0
31879,-336,0.33652,34536,880,0.65893,0
31655,-224,0.31420,34536,0,0.65893,0
32519,864,0.40030,34984,448,0.69956,0
33880,1361,0.53592,37129,2145,0.89408,0
34632,752,0.61086,37913,784,0.96518,0
33864,-768,0.53433,38297,384,1.00000,0
33880,16,0.53592,36873,-1424,0.87086,0
33032,-848,0.45142,36072,-801,0.79822,0
32215,-817,0.37000,35784,-288,0.77210,0
31447,-768,0.29347,35480,-304,0.74454,0
30759,-688,0.22491,35544,64,0.75034,0
30519,-240,0.20100,34840,-704,0.68650,0
30631,112,0.21216,34184,-656,0.62701,0
30935,304,0.24245,33832,-352,0.59508,0
31351,416,0.28391,33272,-560,0.54430,0
31239,-112,0.27275,32551,-721,0.47892,0
31047,-192,0.25361,32487,-64,0.47311,0
31735,688,0.32217,33464,977,0.56171,0
32487,752,0.39711,33592,128,0.57332,0
32904,417,0.43866,33160,-432,0.53414,0
33384,480,0.48650,33720,560,0.58493,0
34088,704,0.55665,34216,496,0.62991,0
34776,688,0.62521,34168,-48,0.62556,0
34952,176,0.64275,33880,-288,0.59944,0
35176,224,0.66507,34344,464,0.64152,0
35064,-112,0.65391,33464,-880,0.56171,0
33928,-1136,0.54071,32695,-769,0.49197,0
33272,-656,0.47534,31639,-1056,0.39621,0
33160,-112,0.46418,31143,-496,0.35123,0
32599,-561,0.40827,30919,-224,0.33092,0
31639,-960,0.31261,31047,128,0.34252,0
31287,-352,0.27753,31431,384,0.37735,0
31079,-208,0.25680,32375,944,0.46295,0
30935,-144,0.24245,32247,-128,0.45135,0
31191,256,0.26796,31687,-560,0.40056,0
31847,656,0.33333,30599,-1088,0.30190,0
32519,672,0.40030,30135,-464,0.25982,0
33224,705,0.47055,29367,-768,0.19017,0
34104,880,0.55825,28502,-865,0.11173,0
34472,368,0.59492,27734,-768,0.04208,0
35464,992,0.69377,28006,272,0.06675,0
36152,688,0.76233,27926,-80,0.05949,0
36696,544,0.81654,28246,320,0.08851,0
37289,593,0.87564,28743,497,0.13358,0
37369,80,0.88361,29703,960,0.22064,0
36472,-897,0.79422,31159,1456,0.35268,0
36120,-352,0.75914,31751,592,0.40637,0
35080,-1040,0.65551,32327,576,0.45860,0
33080,-2000,0.45620,33224,897,0.53995,0
31495,-1585,0.29826,34584,1360,0.66328,0
30999,-496,0.24883,35912,1328,0.78371,0
30807,-192,0.22970,36008,96,0.79242,0
30071,-736,0.15635,35784,-224,0.77210,0
29319,-752,0.08142,35768,-16,0.77065,0
29239,-80,0.07344,35576,-192,0.75324,0
29191,-48,0.06866,35064,-512,0.70681,0
29271,80,0.07663,35064,0,0.70681,0
30279,1008,0.17708,33496,-1568,0.56461,0
31783,1504,0.32696,32695,-801,0.49197,0
32071,288,0.35566,31719,-976,0.40346,0
33272,1201,0.47534,32343,624,0.46005,0
33784,512,0.52636,31863,-480,0.41652,0
33800,16,0.52795,30919,-944,0.33092,0
33832,32,0.53114,30599,-320,0.30190,0
33320,-512,0.48012,32519,1920,0.47601,0
33720,400,0.51998,31863,-656,0.41652,0
33272,-448,0.47534,32215,352,0.44844,0
32519,-753,0.40030,32295,80,0.45570,0
31031,-1488,0.25202,32327,32,0.45860,0
31415,384,0.29028,32007,-320,0.42958,0
31527,112,0.30144,32343,336,0.46005,0
31511,-16,0.29985,32663,320,0.48907,0
31559,48,0.30463,33176,513,0.53559,0
31383,-176,0.28710,33672,496,0.58057,0
32327,944,0.38117,34424,752,0.64877,0
33000,673,0.44823,35864,1440,0.77936,0
33080,80,0.45620,35960,96,0.78807,0
32135,-945,0.36203,36056,96,0.79677,0
32183,48,0.36682,35800,-256,0.77356,0
32615,432,0.40987,35144,-656,0.71407,0
33464,849,0.49447,34328,-816,0.64007,0
33528,64,0.50085,33512,-816,0.56607,0
33528,0,0.50085,32199,-1313,0.44699,0
33960,432,0.54390,32471,272,0.47166,0
34056,96,0.55346,33000,529,0.51963,0
33336,-720,0.48171,31047,-1953,0.34252,0
32535,-801,0.40189,30967,-80,0.33527,0
31911,-624,0.33971,31431,464,0.37735,0
32263,352,0.37479,31239,-192,0.35993,0
32599,336,0.40827,30135,-1104,0.25982,0
32679,80,0.41624,29575,-560,0.20903,0
32679,0,0.41624,29895,320,0.23805,0
32039,-640,0.35247,29703,-192,0.22064,0
31687,-352,0.31739,30375,672,0.28158,0
31735,48,0.32217,31239,864,0.35993,0
31207,-528,0.26956,32247,1008,0.45135,0
31623,416,0.31101,32808,561,0.50222,0
32311,688,0.37957,33048,240,0.52399,0
33208,897,0.46896,32535,-513,0.47746,0
34536,1328,0.60130,31975,-560,0.42668,0
35032,496,0.65072,31991,16,0.42813,0
35576,544,0.70493,32455,464,0.47021,0
35912,336,0.73842,32792,337,0.50077,0
35368,-544,0.68421,33208,416,0.53850,0
35896,528,0.73682,33448,240,0.56026,0
34824,-1072,0.62999,33032,-416,0.52254,0
33240,-1584,0.47215,32519,-513,0.47601,0
32279,-961,0.37638,32199,-320,0.44699,0
32055,-224,0.35406,32423,224,0.46731,0
32007,-48,0.34928,32215,-208,0.44844,0
32215,208,0.37000,32647,432,0.48762,0
31495,-720,0.29826,32615,-32,0.48472,0
31063,-432,0.25521,33016,401,0.52108,0
30919,-144,0.24086,33720,704,0.58493,0
31303,384,0.27912,33624,-96,0.57622,0
31879,576,0.33652,32872,-752,0.50803,0
31959,80,0.34449,32055,-817,0.43393,0
32023,64,0.35087,31431,-624,0.37735,0
32455,432,0.39392,31399,-32,0.37444,0
32151,-304,0.36363,32375,976,0.46295,0
32087,-64,0.35725,34040,1665,0.61395,0
33256,1169,0.47374,34040,0,0.61395,0
33816,560,0.52955,34408,368,0.64732,0
34104,288,0.55825,34024,-384,0.61250,0
34856,752,0.63318,33784,-240,0.59073,0
35352,496,0.68261,33784,0,0.59073,0
34088,-1264,0.55665,33576,-208,0.57187,0
33176,-912,0.46577,32023,-1553,0.43103,0
32167,-1009,0.36522,32519,496,0.47601,0
31399,-768,0.28869,32776,257,0.49932,0
31191,-208,0.26796,32615,-161,0.48472,0
30807,-384,0.22970,32311,-304,0.45715,0
30119,-688,0.16114,33000,689,0.51963,0
30087,-32,0.15795,33256,256,0.54285,0
30263,176,0.17549,33304,48,0.54720,0
31111,848,0.25999,33480,176,0.56316,0
30887,-224,0.23767,33560,80,0.57042,0
31271,384,0.27593,33656,96,0.57912,0
32263,992,0.37479,34120,464,0.62120,0
32968,705,0.44504,33576,-544,0.57187,0
33928,960,0.54071,33912,336,0.60234,0
34152,224,0.56303,33592,-320,0.57332,0
34248,96,0.57260,32343,-1249,0.46005,0
34248,0,0.57260,31991,-352,0.42813,0
34008,-240,0.54868,31815,-176,0.41217,0
34200,192,0.56781,30823,-992,0.32221,0
34376,176,0.58535,30215,-608,0.26707,0
34392,16,0.58695,30647,432,0.30625,0
33704,-688,0.51839,31719,1072,0.40346,0
33320,-384,0.48012,32487,768,0.47311,0
32535,-785,0.40189,33464,977,0.56171,0
32007,-528,0.34928,33608,144,0.57477,0
31255,-752,0.27434,34152,544,0.62410,0
31479,224,0.29666,34568,416,0.66183,0
30679,-800,0.21694,34680,112,0.67199,0
31383,704,0.28710,34232,-448,0.63136,0
32391,1008,0.38754,34632,400,0.66763,0
33496,1105,0.49766,33896,-736,0.60089,0
34712,1216,0.61883,33000,-896,0.51963,0
35272,560,0.67464,31351,-1649,0.37009,0
35560,288,0.70334,30807,-544,0.32076,0
36312,752,0.77828,30327,-480,0.27723,0
36488,176,0.79581,30007,-320,0.24821,0
36440,-48,0.79103,30727,720,0.31350,0
35320,-1120,0.67942,32615,1888,0.48472,0
33752,-1568,0.52317,33816,1201,0.59363,0
32167,-1585,0.36522,33624,-192,0.57622,0
30839,-1328,0.23288,32856,-768,0.50657,0
31303,464,0.27912,32615,-241,0.48472,0
30983,-320,0.24723,32343,-272,0.46005,0
30231,-752,0.17230,32968,625,0.51673,0
30215,-16,0.17070,33864,896,0.59799,0
30615,400,0.21056,34552,688,0.66038,0
30727,112,0.22172,35272,720,0.72567,0
30311,-416,0.18027,34600,-672,0.66473,0
30791,480,0.22810,32727,-1873,0.49488,0
31351,560,0.28391,32952,225,0.51528,0
31719,368,0.32058,32215,-737,0.44844,0
31943,224,0.34290,31639,-576,0.39621,0
32151,208,0.36363,31639,0,0.39621,0
32711,560,0.41943,31143,-496,0.35123,0
33448,737,0.49287,31431,288,0.37735,0
34024,576,0.55027,30839,-592,0.32366,0
34712,688,0.61883,30391,-448,0.28303,0
34792,80,0.62681,30039,-352,0.25111,0
34792,0,0.62681,30215,176,0.26707,0
35000,208,0.64753,30599,384,0.30190,0
34504,-496,0.59811,30567,-32,0.29899,0
33496,-1008,0.49766,30807,240,0.32076,0
32119,-1377,0.36044,31015,208,0.33962,0
30855,-1264,0.23448,32663,1648,0.48907,0
30199,-656,0.16911,34408,1745,0.64732,0
30391,192,0.18824,36632,2224,0.84901,0
30695,304,0.21854,36568,-64,0.84320,0
31511,816,0.29985,36184,-384,0.80838,0
32103,592,0.35884,34264,-1920,0.63426,0
32631,528,0.41146,32567,-1697,0.48037,0
32343,-288,0.38276,32103,-464,0.43829,0
32663,320,0.41465,32551,448,0.47892,0
32663,0,0.41465,33320,769,0.54865,0
32423,-240,0.39073,33576,256,0.57187,0
33160,737,0.46418,33240,-336,0.54140,0
33720,560,0.51998,32984,-256,0.51818,0
34168,448,0.56462,32119,-865,0.43974,0
34152,-16,0.56303,31767,-352,0.40782,0
33336,-816,0.48171,31703,-64,0.40201,0
33496,160,0.49766,31815,112,0.41217,0
33352,-144,0.48331,32423,608,0.46731,0
32792,-560,0.42750,33512,1089,0.56607,0
32151,-641,0.36363,33768,256,0.58928,0
31447,-704,0.29347,34200,432,0.62846,0
31991,544,0.34768,33944,-256,0.60524,0
31639,-352,0.31261,33560,-384,0.57042,0
30807,-832,0.22970,32679,-881,0.49052,0
30967,160,0.24564,31527,-1152,0.38605,0
32151,1184,0.36363,32455,928,0.47021,0
33464,1313,0.49447,33080,625,0.52689,0
32071,0,0.34487,31751,0,0.26689,1
31719,-352,0.26823,31079,-672,0.07690,1
31255,-464,0.16721,32071,992,0.35737,1
31063,-192,0.12541,32615,544,0.51117,1
30983,-80,0.10799,32519,-96,0.48403,1
30999,16,0.11147,32583,64,0.50212,1
31111,112,0.13586,32199,-384,0.39355,1
31591,480,0.24037,32007,-192,0.33927,1
32151,560,0.36229,31943,-64,0.32118,1
33704,1553,0.70041,31719,-224,0.25785,1
33048,-656,0.55759,32311,592,0.42522,1
33816,768,0.72480,31655,-656,0.23975,1
34264,448,0.82234,31815,160,0.28499,1
34488,224,0.87111,31575,-240,0.21713,1
34104,-384,0.78750,31719,144,0.25785,1
34136,32,0.79447,32135,416,0.37546,1
33768,-368,0.71435,32711,576,0.53831,1
33320,-448,0.61681,32071,-640,0.35737,1
33000,-320,0.54714,32391,320,0.44784,1
33496,496,0.65513,32727,336,0.54283,1
32023,-1473,0.33442,32615,-112,0.51117,1
31703,-320,0.26475,32375,-240,0.44331,1
31303,-400,0.17766,32519,144,0.48403,1
30951,-352,0.10102,32311,-208,0.42522,1
30919,-32,0.09406,32247,-64,0.40712,1
31575,656,0.23688,31991,-256,0.33475,1
31191,-384,0.15328,31895,-96,0.30761,1
31783,592,0.28217,32055,160,0.35284,1
32263,480,0.38668,31815,-240,0.28499,1
32663,400,0.47376,31399,-416,0.16737,1
33176,513,0.58546,31255,-144,0.12666,1
33528,352,0.66209,31047,-208,0.06785,1
33768,240,0.71435,30999,-48,0.05428,1
33848,80,0.73177,30871,-128,0.01809,1
34104,256,0.78750,31271,400,0.13118,1
34232,128,0.81537,31767,496,0.27142,1
34232,0,0.81537,31927,160,0.31665,1
34008,-224,0.76660,32167,240,0.38451,1
33512,-496,0.65861,32119,-48,0.37094,1
33160,-352,0.58197,31463,-656,0.18547,1
32327,-833,0.40061,32327,864,0.42974,1
31959,-368,0.32049,32071,-256,0.35737,1
31783,-176,0.28217,32215,144,0.39808,1
31767,-16,0.27868,32359,144,0.43879,1
31607,-160,0.24385,31655,-704,0.23975,1
31399,-208,0.19856,32439,784,0.46141,1
31415,16,0.20205,32327,-112,0.42974,1
31831,416,0.29262,32231,-96,0.40260,1
32295,464,0.39364,31175,-1056,0.10404,1
33160,865,0.58197,31639,464,0.23523,1
33880,720,0.73873,31959,320,0.32570,1
34440,560,0.86066,31319,-640,0.14476,1
34728,288,0.92336,31351,32,0.15380,1
34184,-544,0.80492,31287,-64,0.13571,1
34520,336,0.87808,31543,256,0.20809,1
34312,-208,0.83279,31623,80,0.23070,1
33320,-992,0.61681,30951,-672,0.04071,1
32583,-737,0.45635,31719,768,0.25785,1
32423,-160,0.42151,31271,-448,0.13118,1
31927,-496,0.31352,31591,320,0.22166,1
31783,-144,0.28217,32023,432,0.34379,1
31207,-576,0.15676,32375,352,0.44331,1
30855,-352,0.08012,32567,192,0.49760,1
30791,-64,0.06619,33240,673,0.68787,1
31335,544,0.18463,31639,-1601,0.23523,1
31047,-288,0.12192,31447,-192,0.18094,1
30807,-240,0.06967,31543,96,0.20809,1
31927,1120,0.31352,31671,128,0.24427,1
32599,672,0.45983,31943,272,0.32118,1
33304,705,0.61332,31383,-560,0.16285,1
33496,192,0.65513,31431,48,0.17642,1
33672,176,0.69345,31143,-288,0.09500,1
33880,208,0.73873,31015,-128,0.05881,1
34152,272,0.79795,30967,-48,0.04524,1
34264,112,0.82234,30839,-128,0.00905,1
34264,0,0.82234,31143,304,0.09500,1
34056,-208,0.77705,31159,16,0.09952,1
33704,-352,0.70041,31175,16,0.10404,1
32776,-928,0.49837,31543,368,0.20809,1
32695,-81,0.48073,31927,384,0.31665,1
32119,-576,0.35532,32039,112,0.34832,1
31527,-592,0.22643,31143,-896,0.09500,1
31095,-432,0.13238,32247,1104,0.40712,1
30887,-208,0.08709,32487,240,0.47498,1
30887,0,0.08709,32583,96,0.50212,1
31047,160,0.12192,32727,144,0.54283,1
31271,224,0.17069,32711,-16,0.53831,1
31815,544,0.28914,32711,0,0.53831,1
32711,896,0.48422,32551,-160,0.49307,1
32567,-144,0.45286,32407,-144,0.45236,1
33448,881,0.64468,31383,-1024,0.16285,1
33944,496,0.75267,31255,-128,0.12666,1
34168,224,0.80144,31607,352,0.22618,1
34264,96,0.82234,30935,-672,0.03619,1
34312,48,0.83279,31239,304,0.12214,1
34360,48,0.84324,31751,512,0.26689,1
34056,-304,0.77705,31879,128,0.30308,1
33656,-400,0.68996,31975,96,0.33022,1
33176,-480,0.58546,32039,64,0.34832,1
32647,-529,0.47028,31911,-128,0.31213,1
32055,-592,0.34139,32647,736,0.52021,1
31591,-464,0.24037,32599,-48,0.50664,1
31271,-320,0.17069,32567,-32,0.49760,1
31047,-224,0.12192,32583,16,0.50212,1
31047,0,0.12192,32439,-144,0.46141,1
31207,160,0.15676,32808,369,0.56573,1
31159,-48,0.14631,31623,-1185,0.23070,1
31671,512,0.25778,31943,320,0.32118,1
32808,1137,0.50533,32023,80,0.34379,1
32824,16,0.50882,31671,-352,0.24427,1
33448,624,0.64468,31639,-32,0.23523,1
34024,576,0.77008,31607,-32,0.22618,1
34296,272,0.82931,31319,-288,0.14476,1
34104,-192,0.78750,31143,-176,0.09500,1
34456,352,0.86414,31175,32,0.10404,1
34328,-128,0.83627,31351,176,0.15380,1
34104,-224,0.78750,31559,208,0.21261,1
33736,-368,0.70738,31831,272,0.28951,1
33208,-528,0.59242,31911,80,0.31213,1
32840,-368,0.51230,32263,352,0.41165,1
32295,-545,0.39364,32647,384,0.52021,1
31991,-304,0.32745,32695,48,0.53379,1
31063,-928,0.12541,33176,481,0.66978,1
30663,-400,0.03832,32984,-192,0.61549,1
30951,288,0.10102,32327,-657,0.42974,1
31431,480,0.20553,32119,-208,0.37094,1
31847,416,0.29610,31927,-192,0.31665,1
32327,480,0.40061,31975,48,0.33022,1
32952,625,0.53669,31879,-96,0.30308,1
33592,640,0.67603,31911,32,0.31213,1
33880,288,0.73873,31943,32,0.32118,1
33816,-64,0.72480,31799,-144,0.28046,1
33960,144,0.75615,31959,160,0.32570,1
33976,16,0.75963,31767,-192,0.27142,1
34088,112,0.78402,31511,-256,0.19904,1
33736,-352,0.70738,31639,128,0.23523,1
33448,-288,0.64468,31639,0,0.23523,1
33224,-224,0.59591,31815,176,0.28499,1
32904,-320,0.52624,32423,608,0.45688,1
32503,-401,0.43893,31879,-544,0.30308,1
32279,-224,0.39016,32792,913,0.56121,1
31991,-288,0.32745,32439,-353,0.46141,1
31383,-608,0.19508,32295,-144,0.42070,1
31063,-320,0.12541,32327,32,0.42974,1
31415,352,0.20205,32471,144,0.47046,1
30903,-512,0.09057,32247,-224,0.40712,1
30951,48,0.10102,32055,-192,0.35284,1
31047,96,0.12192,31895,-160,0.30761,1
31639,592,0.25082,32311,416,0.42522,1
32519,880,0.44241,31607,-704,0.22618,1
33064,545,0.56107,31511,-96,0.19904,1
33528,464,0.66209,31367,-144,0.15833,1
33896,368,0.74222,31287,-80,0.13571,1
33608,-288,0.67951,30903,-384,0.02714,1
34328,720,0.83627,31303,400,0.14023,1
34184,-144,0.80492,31655,352,0.23975,1
33912,-272,0.74570,31751,96,0.26689,1
33576,-336,0.67255,32023,272,0.34379,1
33112,-464,0.57152,32199,176,0.39355,1
32471,-641,0.43196,31879,-320,0.30308,1
31927,-544,0.31352,32487,608,0.47498,1
31255,-672,0.16721,32631,144,0.51569,1
31319,64,0.18115,32647,16,0.52021,1
31047,-272,0.12192,32631,-16,0.51569,1
30887,-160,0.08709,33416,785,0.73763,1
31031,144,0.11844,32551,-865,0.49307,1
31207,176,0.15676,32407,-144,0.45236,1
31655,448,0.25430,32343,-64,0.43427,1
32183,528,0.36926,32039,-304,0.34832,1
32695,512,0.48073,31831,-208,0.28951,1
32792,97,0.50185,31383,-448,0.16285,1
33752,960,0.71086,31495,112,0.19452,1
34200,448,0.80840,31495,0,0.19452,1
34504,304,0.87459,31527,32,0.20356,1
33896,-608,0.74222,31479,-48,0.18999,1
34328,432,0.83627,31159,-320,0.09952,1
34328,0,0.83627,32215,1056,0.39808,1
33848,-480,0.73177,32183,-32,0.38903,1
33256,-592,0.60287,32215,32,0.39808,1
32856,-400,0.51578,32295,80,0.42070,1
32535,-321,0.44590,32583,288,0.50212,1
31911,-624,0.31004,32631,48,0.51569,1
31447,-464,0.20901,32663,32,0.52474,1
31367,-80,0.19160,32711,48,0.53831,1
31303,-64,0.17766,32567,-144,0.49760,1
30487,-816,0.00000,32231,-336,0.40260,1
31335,848,0.18463,32279,48,0.41617,1
31111,-224,0.13586,32647,368,0.52021,1
32327,1216,0.40061,32391,-256,0.44784,1
32968,641,0.54017,32071,-320,0.35737,1
33688,720,0.69693,32007,-64,0.33927,1
34200,512,0.80840,31911,-96,0.31213,1
34584,384,0.89201,31767,-144,0.27142,1
34872,288,0.95471,31783,16,0.27594,1
34888,16,0.95820,31143,-640,0.09500,1
34648,-240,0.90594,31495,352,0.19452,1
34312,-336,0.83279,31527,32,0.20356,1
33864,-448,0.73525,32087,560,0.36189,1
33400,-464,0.63423,31767,-320,0.27142,1
32872,-528,0.51927,32007,240,0.33927,1
32391,-481,0.41454,31975,-32,0.33022,1
31703,-688,0.26475,32455,480,0.46593,1
31415,-288,0.20205,32503,48,0.47950,1
31479,64,0.21598,32391,-112,0.44784,1
31127,-352,0.13934,32487,96,0.47498,1
31127,0,0.13934,32311,-176,0.42522,1
31447,320,0.20901,32263,-48,0.41165,1
31943,496,0.31700,32279,16,0.41617,1
32375,432,0.41106,31735,-544,0.26237,1
33160,785,0.58197,31527,-208,0.20356,1
33496,336,0.65513,31047,-480,0.06785,1
34072,576,0.78054,30807,-240,0.00000,1
34568,496,0.88853,30983,176,0.04976,1
34680,112,0.91291,31063,80,0.07238,1
34584,-96,0.89201,31287,224,0.13571,1
34424,-160,0.85717,32055,768,0.35284,1
34136,-288,0.79447,32615,560,0.51117,1
33768,-368,0.71435,32952,337,0.60645,1
33288,-480,0.60984,32856,-96,0.57930,1
32936,-352,0.53320,32776,-80,0.55669,1
32551,-385,0.44938,32888,112,0.58835,1
32039,-512,0.33791,32519,-369,0.48403,1
31463,-576,0.21250,32904,385,0.59288,1
31847,384,0.29610,33032,128,0.62906,1
31447,-400,0.20901,33064,32,0.63811,1
30727,-720,0.05225,32824,-240,0.57026,1
31559,832,0.23340,32023,-801,0.34379,1
31639,80,0.25082,32071,48,0.35737,1
31975,336,0.32397,31959,-112,0.32570,1
32487,512,0.43545,31735,-224,0.26237,1
33112,625,0.57152,31783,48,0.27594,1
33816,704,0.72480,31655,-128,0.23975,1
34200,384,0.80840,32375,720,0.44331,1
34328,128,0.83627,31543,-832,0.20809,1
34328,0,0.83627,31479,-64,0.18999,1
34328,0,0.83627,31911,432,0.31213,1
34056,-272,0.77705,31863,-48,0.29856,1
33576,-480,0.67255,31831,-32,0.28951,1
32215,-1361,0.37622,31879,48,0.30308,1
32359,144,0.40758,32039,160,0.34832,1
31927,-432,0.31352,32535,496,0.48855,1
31399,-528,0.19856,32631,96,0.51569,1
31015,-384,0.11496,32535,-96,0.48855,1
30775,-240,0.06270,32551,16,0.49307,1
30967,192,0.10451,32663,112,0.52474,1
31063,96,0.12541,32519,-144,0.48403,1
31159,96,0.14631,32391,-128,0.44784,1
32391,1232,0.41454,32359,-32,0.43879,1
32439,48,0.42499,31943,-416,0.32118,1
32727,288,0.48770,32792,849,0.56121,1
33304,577,0.61332,31767,-1025,0.27142,1
33704,400,0.70041,31591,-176,0.22166,1
34040,336,0.77357,31431,-160,0.17642,1
34232,192,0.81537,31271,-160,0.13118,1
34232,0,0.81537,31335,64,0.14928,1
34344,112,0.83976,32183,848,0.38903,1
34488,144,0.87111,31703,-480,0.25332,1
33944,-544,0.75267,31575,-128,0.21713,1
33320,-624,0.61681,32119,544,0.37094,1
32599,-721,0.45983,32151,32,0.37998,1
31831,-768,0.29262,32199,48,0.39355,1
31255,-576,0.16721,31879,-320,0.30308,1
30823,-432,0.07315,32519,640,0.48403,1
30679,-144,0.04180,32567,48,0.49760,1
30647,-32,0.03484,32247,-320,0.40712,1
30903,256,0.09057,32295,48,0.42070,1
31239,336,0.16373,32215,-80,0.39808,1
31271,32,0.17069,32119,-96,0.37094,1
31815,544,0.28914,31991,-128,0.33475,1
32663,848,0.47376,31927,-64,0.31665,1
32936,273,0.53320,31991,64,0.33475,1
33608,672,0.67951,31719,-272,0.25785,1
33816,208,0.72480,31463,-256,0.18547,1
33976,160,0.75963,31271,-192,0.13118,1
34232,256,0.81537,31671,400,0.24427,1
34984,752,0.97910,32071,400,0.35737,1
34792,-192,0.93730,32167,96,0.38451,1
34056,-736,0.77705,32183,16,0.38903,1
33304,-752,0.61332,31959,-224,0.32570,1
32647,-657,0.47028,32279,320,0.41617,1
32215,-432,0.37622,32856,577,0.57930,1
31511,-704,0.22295,33176,320,0.66978,1
31159,-352,0.14631,33336,160,0.71501,1
30567,-592,0.01742,33288,-48,0.70144,1
30695,128,0.04529,33176,-112,0.66978,1
30823,128,0.07315,32824,-352,0.57026,1
31239,416,0.16373,32567,-257,0.49760,1
31623,384,0.24733,32439,-128,0.46141,1
32519,896,0.44241,32263,-176,0.41165,1
32567,48,0.45286,31159,-1104,0.09952,1
33384,817,0.63074,32007,848,0.33927,1
33448,64,0.64468,32199,192,0.39355,1
33224,-224,0.59591,32311,112,0.42522,1
33176,-48,0.58546,32247,-64,0.40712,1
33800,624,0.72132,32407,160,0.45236,1
34456,656,0.86414,32647,240,0.52021,1
33928,-528,0.74918,32968,321,0.61097,1
33384,-544,0.63074,32455,-513,0.46593,1
33512,128,0.65861,33560,1105,0.77834,1
32808,-704,0.50533,34344,784,1.00000,1
33064,256,0.56107,33896,-448,0.87334,1
32439,-625,0.42499,33512,-384,0.76477,1
32071,-368,0.34487,33928,416,0.88239,1
31367,-704,0.19160,33304,-624,0.70597,1
30983,-384,0.10799,33112,-192,0.65168,1
30599,-384,0.02438,33080,-32,0.64263,1
31079,480,0.12889,34088,1008,0.92762,1
30983,-96,0.10799,33032,-1056,0.62906,1
31831,848,0.29262,32952,-80,0.60645,1
32407,576,0.41803,32103,-849,0.36641,1
33336,929,0.62029,31847,-256,0.29403,1
33960,624,0.75615,31367,-480,0.15833,1
34248,288,0.81885,31207,-160,0.11309,1
34440,192,0.86066,31159,-48,0.09952,1
34888,448,0.95820,31303,144,0.14023,1
34776,-112,0.93381,31511,208,0.19904,1
34520,-256,0.87808,31607,96,0.22618,1
34056,-464,0.77705,31591,-16,0.22166,1
33416,-640,0.63771,31623,32,0.23070,1
32808,-608,0.50533,31719,96,0.25785,1
32455,-353,0.42848,32151,432,0.37998,1
31527,-928,0.22643,32343,192,0.43427,1
31671,144,0.25778,32343,0,0.43427,1
31399,-272,0.19856,32439,96,0.46141,1
31351,-48,0.18811,32503,64,0.47950,1
31543,192,0.22992,32455,-48,0.46593,1
32279,736,0.39016,32439,-16,0.46141,1
31751,-528,0.27520,32471,32,0.47046,1
32856,1105,0.51578,32391,-80,0.44784,1
33304,448,0.61332,32215,-176,0.39808,1
33832,528,0.72828,32183,-32,0.38903,1
33608,-224,0.67951,31767,-416,0.27142,1
33736,128,0.70738,31559,-208,0.21261,1
33992,256,0.76312,31511,-48,0.19904,1
34072,80,0.78054,31751,240,0.26689,1
34376,304,0.84672,32039,288,0.34832,1
34088,-288,0.78402,32471,432,0.47046,1
33736,-352,0.70738,32343,-128,0.43427,1
33272,-464,0.60636,32087,-256,0.36189,1
32535,-737,0.44590,31463,-624,0.18547,1
31927,-608,0.31352,32119,656,0.37094,1
31399,-528,0.19856,31943,-176,0.32118,1
31495,96,0.21946,32920,977,0.59740,1
31207,-288,0.15676,33416,496,0.73763,1
31047,-160,0.12192,33192,-224,0.67430,1
31031,-16,0.11844,32695,-497,0.53379,1
31303,272,0.17766,32439,-256,0.46141,1
31735,432,0.27172,32487,48,0.47498,1
31927,192,0.31352,32039,-448,0.34832,1
32343,416,0.40409,32135,96,0.37546,1
33320,977,0.61681,31719,-416,0.25785,1
33800,480,0.72132,32263,544,0.41165,1
34280,480,0.82582,31591,-672,0.22166,1
34584,304,0.89201,31143,-448,0.09500,1
34712,128,0.91988,31863,720,0.29856,1
34760,48,0.93033,32071,208,0.35737,1
34520,-240,0.87808,31911,-160,0.31213,1
34152,-368,0.79795,32007,96,0.33927,1
33608,-544,0.67951,32359,352,0.43879,1
33048,-560,0.55759,32519,160,0.48403,1
32439,-609,0.42499,32663,144,0.52474,1
32007,-432,0.33094,32679,16,0.52926,1
31191,-816,0.15328,33672,993,0.81001,1
31415,224,0.20205,33368,-304,0.72406,1
31143,-272,0.14283,33192,-176,0.67430,1
30823,-320,0.07315,33416,224,0.73763,1
31047,224,0.12192,32615,-801,0.51117,1
31463,416,0.21250,32455,-160,0.46593,1
31671,208,0.25778,32247,-208,0.40712,1
32551,880,0.44938,31879,-368,0.30308,1
33880,1329,0.73873,31543,-336,0.20809,1
33880,0,0.73873,32439,896,0.46141,1
34296,416,0.82931,32535,96,0.48855,1
34456,160,0.86414,31575,-960,0.21713,1
34888,432,0.95820,31911,336,0.31213,1
34504,-384,0.87459,32231,320,0.40260,1
34360,-144,0.84324,32327,96,0.42974,1
33816,-544,0.72480,32183,-144,0.38903,1
33352,-464,0.62378,31719,-464,0.25785,1
32583,-769,0.45635,32439,720,0.46141,1
32039,-544,0.33791,32743,304,0.54736,1
31671,-368,0.25778,32968,225,0.61097,1
31255,-416,0.16721,32888,-80,0.58835,1
30999,-256,0.11147,33000,112,0.62002,1
30903,-96,0.09057,32936,-64,0.60192,1
30935,32,0.09754,32631,-305,0.51569,1
30999,64,0.11147,32327,-304,0.42974,1
31335,336,0.18463,32343,16,0.43427,1
31799,464,0.28565,32503,160,0.47950,1
32231,432,0.37971,31559,-944,0.21261,1
32808,577,0.50533,31687,128,0.24880,1
33336,528,0.62029,31751,64,0.26689,1
33784,448,0.71783,31719,-32,0.25785,1
34104,320,0.78750,31815,96,0.28499,1
34248,144,0.81885,31895,80,0.30761,1
34312,64,0.83279,32359,464,0.43879,1
34360,48,0.84324,32487,128,0.47498,1
33816,-544,0.72480,32535,48,0.48855,1
33400,-416,0.63423,32391,-144,0.44784,1
32872,-528,0.51927,32663,272,0.52474,1
32103,-769,0.35184,32439,-224,0.46141,1
31511,-592,0.22295,32279,-160,0.41617,1
31191,-320,0.15328,32519,240,0.48403,1
31831,640,0.29262,32647,128,0.52021,1
30839,-992,0.07664,32311,-336,0.42522,1
30919,80,0.09406,32279,-32,0.41617,1
31239,320,0.16373,32455,176,0.46593,1
31255,16,0.16721,32920,465,0.59740,1
31943,688,0.31700,32792,-128,0.56121,1
32535,592,0.44590,32599,-193,0.50664,1
33112,577,0.57152,32407,-192,0.45236,1
33816,704,0.72480,32231,-176,0.40260,1
34232,416,0.81537,31687,-544,0.24880,1
34168,-64,0.80144,31927,240,0.31665,1
34408,240,0.85369,32007,80,0.33927,1
34376,-32,0.84672,32167,160,0.38451,1
34136,-240,0.79447,32119,-48,0.37094,1
34056,-80,0.77705,31975,-144,0.33022,1
33112,-944,0.57152,32071,96,0.35737,1
32439,-673,0.42499,32840,769,0.57478,1
32439,0,0.42499,33160,320,0.66525,1
31783,-656,0.28217,33048,-112,0.63359,1
32039,256,0.33791,32824,-224,0.57026,1
31399,-640,0.19856,33080,256,0.64263,1
31175,-224,0.14979,33240,160,0.68787,1
30903,-272,0.09057,32952,-288,0.60645,1
30951,48,0.10102,32567,-385,0.49760,1
31975,1024,0.32397,32455,-112,0.46593,1
31095,-880,0.13238,32247,-208,0.40712,1
32503,1408,0.43893,32055,-192,0.35284,1
33384,881,0.63074,31751,-304,0.26689,1
34136,752,0.79447,31367,-384,0.15833,1
34600,464,0.89549,31303,-64,0.14023,1
34968,368,0.97562,31399,96,0.16737,1
34984,16,0.97910,30871,-528,0.01809,1
35080,96,1.00000,31623,752,0.23070,1
34632,-448,0.90246,31751,128,0.26689,1
34072,-560,0.78054,31991,240,0.33475,1
33336,-736,0.62029,32135,144,0.37546,1
32808,-528,0.50533,32279,144,0.41617,1
32071,-737,0.34487,32295,16,0.42070,1
31575,-496,0.23688,32007,-288,0.33927,1
30647,-928,0.03484,32103,96,0.36641,1
30983,336,0.10799,32695,592,0.53379,1
30919,-64,0.09406,32920,225,0.59740,1
30807,-112,0.06967,32984,64,0.61549,1
30855,48,0.08012,33256,272,0.69239,1
31255,400,0.16721,32840,-416,0.57478,1
31911,656,0.31004,33304,464,0.70597,1
32776,865,0.49837,32711,-593,0.53831,1
33176,400,0.58546,32023,-688,0.34379,1
33656,480,0.68996,31575,-448,0.21713,1
33912,256,0.74570,32183,608,0.38903,1
34424,512,0.85717,31655,-528,0.23975,1
34296,-128,0.82931,31527,-128,0.20356,1
34104,-192,0.78750,31639,112,0.23523,1
33768,-336,0.71435,31927,288,0.31665,1
33480,-288,0.65164,32135,208,0.37546,1
33112,-368,0.57152,32167,32,0.38451,1
32455,-657,0.42848,32151,-16,0.37998,1
32087,-368,0.34836,32023,-128,0.34379,1
31399,-688,0.19856,32423,400,0.45688,1
31223,-176,0.16024,32824,401,0.57026,1
31079,-144,0.12889,33080,256,0.64263,1
30999,-80,0.11147,32888,-192,0.58835,1
30983,-16,0.10799,32615,-273,0.51117,1
31127,144,0.13934,32503,-112,0.47950,1
31639,512,0.25082,32199,-304,0.39355,1
31911,272,0.31004,32151,-48,0.37998,1
32471,560,0.43196,31927,-224,0.31665,1
33000,529,0.54714,31559,-368,0.21261,1
33400,400,0.63423,31799,240,0.28046,1
33992,592,0.76312,30999,-800,0.05428,1
35032,1040,0.98955,31479,480,0.18999,1
34376,-656,0.84672,31527,48,0.20356,1
34312,-64,0.83279,31623,96,0.23070,1
34152,-160,0.79795,31799,176,0.28046,1
33800,-352,0.72132,32055,256,0.35284,1
33288,-512,0.60984,32279,224,0.41617,1
32808,-480,0.50533,32487,208,0.47498,1
32231,-577,0.37971,32695,208,0.53379,1
31751,-480,0.27520,32663,-32,0.52474,1
31431,-320,0.20553,32904,241,0.59288,1
31223,-208,0.16024,33128,224,0.65621,1
30567,-656,0.01742,33192,64,0.67430,1
30999,432,0.11147,33128,-64,0.65621,1
30935,-64,0.09754,32840,-288,0.57478,1
31463,528,0.21250,32503,-337,0.47950,1
31767,304,0.27868,32247,-256,0.40712,1
32519,752,0.44241,32551,304,0.49307,1
32711,192,0.48422,31927,-624,0.31665,1
33160,449,0.58197,31831,-96,0.28951,1
33432,272,0.64119,31623,-208,0.23070,1
33816,384,0.72480,31655,32,0.23975,1
33896,80,0.74222,32503,848,0.47950,1
33800,-96,0.72132,31911,-592,0.31213,1
33864,64,0.73525,32551,640,0.49307,1
33736,-128,0.70738,32535,-16,0.48855,1
33512,-224,0.65861,32615,80,0.51117,1
33096,-416,0.56804,32776,161,0.55669,1
34088,0,0.73406,32984,0,0.59622,0
33992,-96,0.71872,32776,-208,0.56052,0
33688,-304,0.67013,32776,0,0.56052,0
33272,-416,0.60364,34040,1264,0.77751,0
33368,96,0.61899,33272,-768,0.64567,0
32327,-1041,0.45261,33144,-128,0.62369,0
31655,-672,0.34521,33080,-64,0.61270,0
31159,-496,0.26594,33256,176,0.64292,0
30839,-320,0.21480,33448,192,0.67588,0
30455,-384,0.15343,33320,-128,0.65391,0
30679,224,0.18923,33352,32,0.65940,0
31095,416,0.25571,32968,-384,0.59348,0
31431,336,0.30941,32407,-561,0.49717,0
32327,896,0.45261,31767,-640,0.38730,0
33080,753,0.57296,30999,-768,0.25545,0
33784,704,0.68547,30855,-144,0.23073,0
33496,-288,0.63944,31303,448,0.30764,0
33624,128,0.65990,31895,592,0.40927,0
33624,0,0.65990,32071,176,0.43948,0
33480,-144,0.63689,32327,256,0.48343,0
34264,784,0.76219,32151,-176,0.45322,0
34712,448,0.83379,31703,-448,0.37631,0
34488,-224,0.79799,30839,-864,0.22798,0
34136,-352,0.74173,30919,80,0.24172,0
33976,-160,0.71616,30887,-32,0.23622,0
33800,-176,0.68803,30663,-224,0.19777,0
32984,-816,0.55762,30807,144,0.22249,0
32792,-192,0.52693,32311,1504,0.48069,0
32439,-353,0.47051,33304,993,0.65116,0
32247,-192,0.43983,33480,176,0.68137,0
32119,-128,0.41937,33240,-240,0.64017,0
31591,-528,0.33498,32936,-304,0.58798,0
31447,-144,0.31197,32583,-353,0.52738,0
31543,96,0.32731,33048,465,0.60721,0
32119,576,0.41937,33512,464,0.68687,0
33112,993,0.57807,34296,784,0.82146,0
33880,768,0.70082,34312,16,0.82421,0
34040,160,0.72639,34216,-96,0.80773,0
33928,-112,0.70849,33624,-592,0.70609,0
34136,208,0.74173,33016,-608,0.60172,0
34664,528,0.82611,33080,64,0.61270,0
34408,-256,0.78520,32920,-160,0.58524,0
33640,-768,0.66246,32535,-385,0.51914,0
33160,-480,0.58574,32824,289,0.56876,0
32808,-352,0.52949,32631,-193,0.53562,0
32087,-721,0.41426,32215,-416,0.46421,0
31511,-576,0.32220,32279,64,0.47519,0
30039,-1472,0.08694,32471,192,0.50815,0
30311,272,0.13041,32824,353,0.56876,0
29991,-320,0.07927,33176,352,0.62918,0
30423,432,0.14831,33416,240,0.67039,0
31271,848,0.28384,33768,352,0.73082,0
31239,-32,0.27873,33416,-352,0.67039,0
32647,1408,0.50376,32808,-608,0.56601,0
34360,1713,0.77753,32567,-241,0.52464,0
34376,16,0.78009,31751,-816,0.38455,0
34760,384,0.84146,31863,112,0.40378,0
34664,-96,0.82611,31991,128,0.42575,0
34200,-464,0.75196,31703,-288,0.37631,0
33944,-256,0.71104,32551,848,0.52189,0
34152,208,0.74429,32695,144,0.54661,0
34360,208,0.77753,32984,289,0.59622,0
34104,-256,0.73661,33304,320,0.65116,0
32968,-1136,0.55506,34248,944,0.81322,0
32423,-545,0.46796,33160,-1088,0.62644,0
31431,-992,0.30941,33672,512,0.71433,0
30999,-432,0.24037,34152,480,0.79674,0
30583,-416,0.17389,34216,64,0.80773,0
30599,16,0.17644,34360,144,0.83245,0
30311,-288,0.13041,34056,-304,0.78026,0
30663,352,0.18667,33576,-480,0.69785,0
31463,800,0.31453,33480,-96,0.68137,0
32215,752,0.43471,33000,-480,0.59897,0
32920,705,0.54739,32247,-753,0.46970,0
33192,272,0.59086,31367,-880,0.31863,0
34104,912,0.73661,31239,-128,0.29665,0
34536,432,0.80566,30615,-624,0.18953,0
34776,240,0.84401,30535,-80,0.17579,0
35128,352,0.90027,31031,496,0.26094,0
35272,144,0.92329,31255,224,0.29940,0
34872,-400,0.85936,31847,592,0.40103,0
34184,-688,0.74940,32231,384,0.46695,0
33672,-512,0.66757,32519,288,0.51639,0
33800,128,0.68803,32727,208,0.55210,0
32856,-944,0.53716,32936,209,0.58798,0
32599,-257,0.49608,34120,1184,0.79124,0
32039,-560,0.40658,33144,-976,0.62369,0
31063,-976,0.25060,32840,-304,0.57150,0
30183,-880,0.10996,33192,352,0.63193,0
29959,-224,0.07416,33368,176,0.66215,0
29511,-448,0.00256,33768,400,0.73082,0
30023,512,0.08439,34056,288,0.78026,0
31079,1056,0.25316,33528,-528,0.68961,0
32583,1504,0.49353,32872,-656,0.57700,0
34024,1441,0.72383,32295,-577,0.47794,0
34376,352,0.78009,31799,-496,0.39279,0
35432,1056,0.94886,31127,-672,0.27742,0
35384,-48,0.94119,31031,-96,0.26094,0
35016,-368,0.88237,31335,304,0.31313,0
34440,-576,0.79031,31879,544,0.40652,0
33608,-832,0.65734,32279,400,0.47519,0
33064,-544,0.57040,32952,673,0.59073,0
32840,-224,0.53460,33432,480,0.67313,0
32391,-449,0.46284,33480,48,0.68137,0
31527,-864,0.32476,34024,544,0.77476,0
31799,272,0.36823,34376,352,0.83519,0
30999,-800,0.24037,34872,496,0.92034,0
30215,-784,0.11507,34632,-240,0.87914,0
30535,320,0.16621,34168,-464,0.79948,0
30839,304,0.21480,33416,-752,0.67039,0
30919,80,0.22759,33048,-368,0.60721,0
32119,1200,0.41937,32856,-192,0.57425,0
33272,1153,0.60364,33576,720,0.69785,0
33880,608,0.70082,33160,-416,0.62644,0
33800,-80,0.68803,33000,-160,0.59897,0
34072,272,0.73150,32679,-321,0.54386,0
34760,688,0.84146,32263,-416,0.47245,0
34776,16,0.84401,32007,-256,0.42850,0
34584,-192,0.81333,32279,272,0.47519,0
34600,16,0.81589,32455,176,0.50541,0
34024,-576,0.72383,33432,977,0.67313,0
32920,-1104,0.54739,33496,64,0.68412,0
32519,-401,0.48330,33336,-160,0.65665,0
32359,-160,0.45773,33208,-128,0.63468,0
32119,-240,0.41937,33304,96,0.65116,0
31783,-336,0.36567,33544,240,0.69236,0
31559,-224,0.32987,33304,-240,0.65116,0
31303,-256,0.28896,33096,-208,0.61545,0
30951,-352,0.23270,33384,288,0.66489,0
30743,-208,0.19946,34056,672,0.78026,0
31047,304,0.24804,34328,272,0.82695,0
31191,144,0.27106,34312,-16,0.82421,0
31191,0,0.27106,33816,-496,0.73906,0
31463,272,0.31453,33800,-16,0.73631,0
32343,880,0.45517,33288,-512,0.64841,0
33608,1265,0.65734,32567,-721,0.52464,0
34392,784,0.78264,32007,-560,0.42850,0
34488,96,0.79799,31655,-352,0.36807,0
33800,-688,0.68803,31735,80,0.38180,0
33768,-32,0.68292,31991,256,0.42575,0
34040,272,0.72639,32327,336,0.48343,0
34280,240,0.76474,32631,304,0.53562,0
33992,-288,0.71872,32567,-64,0.52464,0
33496,-496,0.63944,32647,80,0.53837,0
32679,-817,0.50887,32695,48,0.54661,0
31799,-880,0.36823,33192,497,0.63193,0
31559,-240,0.32987,33832,640,0.74180,0
31063,-496,0.25060,33704,-128,0.71983,0
30695,-368,0.19179,33816,112,0.73906,0
30823,128,0.21224,34152,336,0.79674,0
30951,128,0.23270,33976,-176,0.76652,0
31431,480,0.30941,34840,864,0.91485,0
32215,784,0.43471,33816,-1024,0.73906,0
32952,737,0.55250,33352,-464,0.65940,0
33384,432,0.62154,32599,-753,0.53013,0
33656,272,0.66502,31959,-640,0.42026,0
34088,432,0.73406,32279,320,0.47519,0
33896,-192,0.70337,31639,-640,0.36532,0
34312,416,0.76986,31783,144,0.39004,0
34264,-48,0.76219,32135,352,0.45047,0
33096,-1168,0.57552,32439,304,0.50266,0
33112,16,0.57807,32455,16,0.50541,0
32631,-481,0.50120,32407,-48,0.49717,0
32663,32,0.50631,32535,128,0.51914,0
32695,32,0.51143,32359,-176,0.48893,0
32375,-320,0.46028,32711,352,0.54936,0
32535,160,0.48586,31927,-784,0.41476,0
32519,-16,0.48330,31911,-16,0.41202,0
32663,144,0.50631,32471,560,0.50815,0
32183,-480,0.42960,32904,433,0.58249,0
31959,-224,0.39380,33672,768,0.71433,0
32519,560,0.48330,33768,96,0.73082,0
33288,769,0.60620,33736,-32,0.72532,0
34104,816,0.73661,33736,0,0.72532,0
34824,720,0.85169,33224,-512,0.63742,0
35336,512,0.93351,31927,-1297,0.41476,0
35592,256,0.97443,31079,-848,0.26918,0
34952,-640,0.87214,30663,-416,0.19777,0
33256,-1696,0.60109,30519,-144,0.17305,0
32776,-480,0.52437,31447,928,0.33236,0
32631,-145,0.50120,32439,992,0.50266,0
32199,-432,0.43216,33688,1249,0.71708,0
31767,-432,0.36311,34008,320,0.77202,0
32631,864,0.50120,34312,304,0.82421,0
32279,-352,0.44494,34136,-176,0.79399,0
31671,-608,0.34777,33352,-784,0.65940,0
31079,-592,0.25316,33832,480,0.74180,0
30791,-288,0.20713,33544,-288,0.69236,0
30823,32,0.21224,33368,-176,0.66215,0
30903,80,0.22503,33160,-208,0.62644,0
31335,432,0.29407,32936,-224,0.58798,0
31943,608,0.39124,32776,-160,0.56052,0
32567,624,0.49097,32503,-273,0.51365,0
32615,48,0.49864,32984,481,0.59622,0
32888,273,0.54227,32808,-176,0.56601,0
32679,-209,0.50887,33624,816,0.70609,0
33064,385,0.57040,33208,-416,0.63468,0
33320,256,0.61132,32952,-256,0.59073,0
34168,848,0.74684,32567,-385,0.52464,0
34776,608,0.84401,32567,0,0.52464,0
35144,368,0.90283,32439,-128,0.50266,0
35160,16,0.90539,32183,-256,0.45871,0
33800,-1360,0.68803,31863,-320,0.40378,0
33160,-640,0.58574,31831,-32,0.39828,0
32327,-833,0.45261,32055,224,0.43674,0
31655,-672,0.34521,32776,721,0.56052,0
31063,-592,0.25060,33384,608,0.66489,0
30759,-304,0.20201,33384,0,0.66489,0
30583,-176,0.17389,33688,304,0.71708,0
30327,-256,0.13297,33592,-96,0.70060,0
30727,400,0.19690,33448,-144,0.67588,0
30999,272,0.24037,33032,-416,0.60446,0
31575,576,0.33243,33384,352,0.66489,0
32455,880,0.47307,33656,272,0.71159,0
33288,833,0.60620,33688,32,0.71708,0
34104,816,0.73661,33592,-96,0.70060,0
34280,176,0.76474,33736,144,0.72532,0
34088,-192,0.73406,33384,-352,0.66489,0
33704,-384,0.67269,32840,-544,0.57150,0
33256,-448,0.60109,32647,-193,0.53837,0
32808,-448,0.52949,33128,481,0.62094,0
32840,32,0.53460,33480,352,0.68137,0
33080,240,0.57296,33288,-192,0.64841,0
32711,-369,0.51398,33112,-176,0.61820,0
32391,-320,0.46284,32792,-320,0.56326,0
32663,272,0.50631,33000,208,0.59897,0
32567,-96,0.49097,33048,48,0.60721,0
32263,-304,0.44238,32151,-897,0.45322,0
31863,-400,0.37846,32087,-64,0.44223,0
31447,-416,0.31197,31927,-160,0.41476,0
31303,-144,0.28896,31799,-128,0.39279,0
31335,32,0.29407,31959,160,0.42026,0
30887,-448,0.22247,31751,-208,0.38455,0
31111,224,0.25827,31943,192,0.41751,0
32263,1152,0.44238,32279,336,0.47519,0
33128,865,0.58063,32295,16,0.47794,0
33832,704,0.69314,32199,-96,0.46146,0
34728,896,0.83634,32023,-176,0.43124,0
35160,432,0.90539,31959,-64,0.42026,0
35304,144,0.92840,31703,-256,0.37631,0
34824,-480,0.85169,31383,-320,0.32137,0
34088,-736,0.73406,31031,-352,0.26094,0
33112,-976,0.57807,31383,352,0.32137,0
32455,-657,0.47307,32423,1040,0.49991,0
31975,-480,0.39636,32679,256,0.54386,0
31559,-416,0.32987,33720,1041,0.72258,0
31543,-16,0.32731,33816,96,0.73906,0
31303,-240,0.28896,33800,-16,0.73631,0
31719,416,0.35544,33720,-80,0.72258,0
30983,-736,0.23781,33880,160,0.75004,0
31111,128,0.25827,33656,-224,0.71159,0
31815,704,0.37078,33208,-448,0.63468,0
33032,1217,0.56529,31815,-1393,0.39554,0
33432,400,0.62922,31015,-800,0.25820,0
33368,-64,0.61899,31207,192,0.29116,0
33096,-272,0.57552,31767,560,0.38730,0
33880,784,0.70082,31383,-384,0.32137,0
33336,-544,0.61387,33224,1841,0.63742,0
33768,432,0.68292,33304,80,0.65116,0
33816,48,0.69059,33256,-48,0.64292,0
33832,16,0.69314,32647,-609,0.53837,0
33832,0,0.69314,32343,-304,0.48618,0
33560,-272,0.64967,32023,-320,0.43124,0
33240,-320,0.59853,32135,112,0.45047,0
32904,-336,0.54483,33096,961,0.61545,0
32295,-609,0.44750,33672,576,0.71433,0
31623,-672,0.34010,34104,432,0.78850,0
30343,-1280,0.13553,33928,-176,0.75828,0
30711,368,0.19434,34984,1056,0.93957,0
31047,336,0.24804,35176,192,0.97253,0
30983,-64,0.23781,34424,-752,0.84343,0
31303,320,0.28896,33256,-1168,0.64292,0
31847,544,0.37590,32952,-304,0.59073,0
32567,720,0.49097,32824,-128,0.56876,0
33368,801,0.61899,32663,-161,0.54112,0
34312,944,0.76986,32487,-176,0.51090,0
33784,-528,0.68547,32263,-224,0.47245,0
32968,-816,0.55506,32936,673,0.58798,0
33352,384,0.61643,33352,416,0.65940,0
33624,272,0.65990,33272,-80,0.64567,0
33624,0,0.65990,33688,416,0.71708,0
32727,-897,0.51654,34248,560,0.81322,0
33288,561,0.60620,34584,336,0.87090,0
33784,496,0.68547,34328,-256,0.82695,0
32727,-1057,0.51654,33160,-1168,0.62644,0
31863,-864,0.37846,33720,560,0.72258,0
31239,-624,0.27873,33608,-112,0.70335,0
30823,-416,0.21224,33624,16,0.70609,0
30615,-208,0.17900,33688,64,0.71708,0
30823,208,0.21224,33768,80,0.73082,0
31415,592,0.30686,33928,160,0.75828,0
31943,528,0.39124,33736,-192,0.72532,0
32407,464,0.46540,33000,-736,0.59897,0
32695,288,0.51143,32663,-337,0.54112,0
33384,689,0.62154,32391,-272,0.49442,0
34104,720,0.73661,32343,-48,0.48618,0
34360,256,0.77753,31703,-640,0.37631,0
34536,176,0.80566,31335,-368,0.31313,0
34392,-144,0.78264,31639,304,0.36532,0
34520,128,0.80310,31927,288,0.41476,0
34472,-48,0.79543,31767,-160,0.38730,0
34184,-288,0.74940,31879,112,0.40652,0
33560,-624,0.64967,32167,288,0.45597,0
33048,-512,0.56784,33128,961,0.62094,0
32343,-705,0.45517,33320,192,0.65391,0
31527,-816,0.32476,33736,416,0.72532,0
31239,-288,0.27873,33608,-128,0.70335,0
31671,432,0.34777,33160,-448,0.62644,0
31031,-640,0.24549,32279,-881,0.47519,0
30935,-96,0.23014,32856,577,0.57425,0
31063,128,0.25060,33064,208,0.60996,0
31303,240,0.28896,33736,672,0.72532,0
32119,816,0.41937,34088,352,0.78575,0
33000,881,0.56017,34376,288,0.83519,0
33240,240,0.59853,34248,-128,0.81322,0
33752,512,0.68036,34328,80,0.82695,0
34120,368,0.73917,34296,-32,0.82146,0
34008,-112,0.72127,33560,-736,0.69511,0
33576,-432,0.65223,33096,-464,0.61545,0
33576,0,0.65223,32647,-449,0.53837,0
33640,64,0.66246,32471,-176,0.50815,0
33928,288,0.70849,32407,-64,0.49717,0
33784,-144,0.68547,32087,-320,0.44223,0
33352,-432,0.61643,31863,-224,0.40378,0
32856,-496,0.53716,31607,-256,0.35983,0
32471,-385,0.47563,31831,224,0.39828,0
31815,-656,0.37078,31687,-144,0.37356,0
31527,-288,0.32476,32599,912,0.53013,0
31447,-80,0.31197,32952,353,0.59073,0
31271,-176,0.28384,33208,256,0.63468,0
31111,-160,0.25827,33448,240,0.67588,0
31383,272,0.30174,33496,48,0.68412,0
32167,784,0.42704,33080,-416,0.61270,0
32647,480,0.50376,32920,-160,0.58524,0
33000,353,0.56017,33240,320,0.64017,0
32904,-96,0.54483,32968,-272,0.59348,0
33032,128,0.56529,33048,80,0.60721,0
33448,416,0.63177,32711,-337,0.54936,0
34392,944,0.78264,32375,-336,0.49167,0
35480,1088,0.95653,32039,-336,0.43399,0
35752,272,1.00000,33032,993,0.60446,0
35272,-480,0.92329,33288,256,0.64841,0
34232,-1040,0.75707,32551,-737,0.52189,0
32631,-1601,0.50120,33000,449,0.59897,0
32007,-624,0.40147,33528,528,0.68961,0
30823,-1184,0.21224,34184,656,0.80223,0
30007,-816,0.08183,34360,176,0.83245,0
29703,-304,0.03324,34200,-160,0.80498,0
29575,-128,0.01279,34296,96,0.82146,0
29495,-80,0.00000,34088,-208,0.78575,0
29879,384,0.06137,33960,-128,0.76378,0
30311,432,0.13041,34152,192,0.79674,0
30903,592,0.22503,33944,-208,0.76103,0
31767,864,0.36311,33208,-736,0.63468,0
32615,848,0.49864,32391,-817,0.49442,0
33496,881,0.63944,31559,-832,0.35159,0
34152,656,0.74429,31031,-528,0.26094,0
34616,464,0.81844,30599,-432,0.18678,0
35336,720,0.93351,30023,-576,0.08790,0
35656,320,0.98466,30631,608,0.19227,0
35336,-320,0.93351,31655,1024,0.36807,0
34536,-800,0.80566,31703,48,0.37631,0
33704,-832,0.67269,32183,480,0.45871,0
32840,-864,0.53460,32904,721,0.58249,0
31671,-1169,0.34777,34248,1344,0.81322,0
30119,-1552,0.09973,34776,528,0.90386,0
30231,112,0.11763,35304,528,0.99451,0
30263,32,0.12274,34840,-464,0.91485,0
30215,-48,0.11507,34184,-656,0.80223,0
30311,96,0.13041,33656,-528,0.71159,0
31239,928,0.27873,33784,128,0.73356,0
31447,208,0.31197,31943,-1841,0.41751,0
31735,288,0.35800,31031,-912,0.26094,0
32119,384,0.41937,31431,400,0.32961,0
32920,801,0.54739,32327,896,0.48343,0
33400,480,0.62410,33272,945,0.64567,0
33864,464,0.69826,32888,-384,0.57974,0
34168,304,0.74684,33320,432,0.65391,0
34168,0,0.74684,33592,272,0.70060,0
35128,960,0.90027,32647,-945,0.53837,0
35688,560,0.98977,32023,-624,0.43124,0
35192,-496,0.91050,31863,-160,0.40378,0
35144,-48,0.90283,31527,-336,0.34609,0
33208,-1936,0.59342,31319,-208,0.31039,0
32808,-400,0.52949,31495,176,0.34060,0
31783,-1025,0.36567,32519,1024,0.51639,0
30823,-960,0.21224,33560,1041,0.69511,0
30199,-624,0.11251,34616,1056,0.87639,0
29911,-288,0.06649,34552,-64,0.86541,0
29943,32,0.07160,34520,-32,0.85991,0
30135,192,0.10229,34520,0,0.85991,0
30119,-16,0.09973,35336,816,1.00000,0
31095,976,0.25571,34152,-1184,0.79674,0
31911,816,0.38613,33512,-640,0.68687,0
32487,576,0.47818,32808,-704,0.56601,0
32840,353,0.53460,32327,-481,0.48343,0
33688,848,0.67013,32327,0,0.48343,0
33960,272,0.71360,32359,32,0.48893,0
34392,432,0.78264,32247,-112,0.46970,0
34680,288,0.82867,31623,-624,0.36258,0
34984,304,0.87726,31015,-608,0.25820,0
34792,-192,0.84657,30375,-640,0.14833,0
34056,-736,0.72894,30103,-272,0.10163,0
33112,-944,0.57807,30823,720,0.22524,0
32231,-881,0.43727,31303,480,0.30764,0
31495,-736,0.31964,31879,576,0.40652,0
30343,-1152,0.13553,32247,368,0.46970,0
30807,464,0.20969,32055,-192,0.43674,0
30775,-32,0.20457,32087,32,0.44223,0
30903,128,0.22503,32055,-32,0.43674,0
31111,208,0.25827,31751,-304,0.38455,0
31527,416,0.32476,31239,-512,0.29665,0
31895,368,0.38357,31447,208,0.33236,0
32551,656,0.48841,31751,304,0.38455,0
33176,625,0.58830,32119,368,0.44773,0
34008,832,0.72127,32183,64,0.45871,0
34664,656,0.82611,32487,304,0.51090,0
34744,80,0.83890,33304,817,0.65116,0
34824,80,0.85169,33960,656,0.76378,0
34968,144,0.87470,33736,-224,0.72532,0
34520,-448,0.80310,33640,-96,0.70884,0
34392,-128,0.78264,33544,-96,0.69236,0
33800,-592,0.68803,32952,-592,0.59073,0
32952,-848,0.55250,33192,240,0.63193,0
31735,-1217,0.35800,33176,-16,0.62918,0
31399,-336,0.30430,34392,1216,0.83794,0
30839,-560,0.21480,34088,-304,0.78575,0
30807,-32,0.20969,34696,608,0.89013,0
30135,-672,0.10229,33672,-1024,0.71433,0
30055,-80,0.08950,33032,-640,0.60446,0
30375,320,0.14064,32776,-256,0.56052,0
30455,80,0.15343,32984,208,0.59622,0
31319,864,0.29151,32423,-561,0.49991,0
31751,432,0.36056,32231,-192,0.46695,0
32247,496,0.43983,33672,1441,0.71433,0
32808,561,0.52949,32920,-752,0.58524,0
32599,-209,0.49608,32023,-897,0.43124,0
33672,1073,0.66757,32647,624,0.53837,0
34120,448,0.73917,32695,48,0.54661,0
34392,272,0.78264,32407,-288,0.49717,0
34200,-192,0.75196,32071,-336,0.43948,0
33832,-368,0.69314,32039,-32,0.43399,0
33208,-624,0.59342,32183,144,0.45871,0
32407,-801,0.46540,31863,-320,0.40378,0
32183,-224,0.42960,31671,-192,0.37082,0
32183,0,0.42960,32471,800,0.50815,0
32343,160,0.45517,33048,577,0.60721,0
31767,-576,0.36311,31863,-1185,0.40378,0
31479,-288,0.31708,31751,-112,0.38455,0
31463,-16,0.31453,31751,0,0.38455,0
31671,208,0.34777,31687,-64,0.37356,0
31687,16,0.35033,31799,112,0.39279,0
31831,144,0.37334,31399,-400,0.32412,0
32135,304,0.42193,31719,320,0.37906,0
32808,673,0.52949,31767,48,0.38730,0
33208,400,0.59342,31623,-144,0.36258,0
33480,272,0.63689,31767,144,0.38730,0
34552,1072,0.80821,32263,496,0.47245,0
33992,-560,0.71872,32055,-208,0.43674,0
33448,-544,0.63177,31863,-192,0.40378,0
33448,0,0.63177,31847,-16,0.40103,0
33448,0,0.63177,32007,160,0.42850,0
32952,-496,0.55250,32375,368,0.49167,0
32968,16,0.55506,32663,288,0.54112,0
32135,-833,0.42193,32679,16,0.54386,0
31095,-1040,0.25571,33000,321,0.59897,0
30199,-896,0.11251,33576,576,0.69785,0
30087,-112,0.09461,33912,336,0.75554,0
30279,192,0.12530,33976,64,0.76652,0
30327,48,0.13297,33688,-288,0.71708,0
30263,-64,0.12274,34104,416,0.78850,0
30919,656,0.22759,33528,-576,0.68961,0
31303,384,0.28896,33816,288,0.73906,0
31991,688,0.39891,33016,-800,0.60172,0
33096,1105,0.57552,33016,0,0.60172,0
33880,784,0.70082,32135,-881,0.45047,0
33384,-496,0.62154,31127,-1008,0.27742,0
34488,1104,0.79799,30279,-848,0.13185,0
34488,0,0.79799,29511,-768,0.00000,0
34632,144,0.82100,29719,208,0.03571,0
34616,-16,0.81844,30439,720,0.15931,0
34600,-16,0.81589,31415,976,0.32687,0
33864,-736,0.69826,31783,368,0.39004,0
33272,-592,0.60364,32263,480,0.47245,0
32551,-721,0.48841,32663,400,0.54112,0
31975,-576,0.39636,32487,-176,0.51090,0
31943,-32,0.39124,33032,545,0.60446,0
31575,-368,0.33243,33016,-16,0.60172,0
31319,-256,0.29151,33320,304,0.65391,0
31223,-96,0.27617,32952,-368,0.59073,0
31127,-96,0.26083,32792,-160,0.56326,0
31287,160,0.28640,33864,1072,0.74730,0
31783,496,0.36567,33320,-544,0.65391,0
32135,352,0.42193,32631,-689,0.53562,0
32663,528,0.50631,31943,-688,0.41751,0
33160,497,0.58574,31383,-560,0.32137,0
33224,64,0.59597,31127,-256,0.27742,0
33800,576,0.68803,31351,224,0.31588,0
34104,304,0.73661,31431,80,0.32961,0
34312,208,0.76986,31303,-128,0.30764,0
33080,0,0.60555,31767,0,0.28458,1
33720,640,0.71512,31543,-224,0.23216,1
34152,432,0.78908,31271,-272,0.16850,1
34280,128,0.81099,31047,-224,0.11608,1
34232,-48,0.80277,31031,-16,0.11233,1
34072,-160,0.77538,31399,368,0.19846,1
33704,-368,0.71238,31111,-288,0.13106,1
33384,-320,0.65759,31207,96,0.15352,1
33080,-304,0.60555,31271,64,0.16850,1
32920,-160,0.57815,31415,144,0.20220,1
32407,-513,0.49033,31671,256,0.26211,1
32087,-320,0.43554,31767,96,0.28458,1
31959,-128,0.41363,31831,64,0.29956,1
31527,-432,0.33967,31719,-112,0.27334,1
31143,-384,0.27393,31351,-368,0.18722,1
31223,80,0.28762,32135,784,0.37070,1
30839,-384,0.22188,32455,320,0.44559,1
31911,1072,0.40541,32503,48,0.45682,1
32023,112,0.42458,32375,-128,0.42687,1
32391,368,0.48759,31943,-432,0.32577,1
32872,481,0.56994,31479,-464,0.21718,1
33256,384,0.63568,31191,-288,0.14978,1
32872,-384,0.56994,30999,-192,0.10484,1
33704,832,0.71238,30871,-128,0.07489,1
33768,64,0.72334,31207,336,0.15352,1
33688,-80,0.70964,31207,0,0.15352,1
33352,-336,0.65211,31207,0,0.15352,1
32647,-705,0.53142,31687,480,0.26586,1
32151,-496,0.44650,31751,64,0.28083,1
32007,-144,0.42185,31991,240,0.33700,1
31447,-560,0.32597,32151,160,0.37444,1
30967,-480,0.24379,32199,48,0.38568,1
30791,-176,0.21366,32375,176,0.42687,1
30631,-160,0.18627,32151,-224,0.37444,1
30647,16,0.18901,32055,-96,0.35198,1
30839,192,0.22188,31847,-208,0.30330,1
31031,192,0.25475,31271,-576,0.16850,1
31495,464,0.33419,30855,-416,0.07114,1
32343,848,0.47937,30727,-128,0.04119,1
33528,1185,0.68225,30855,128,0.07114,1
34056,528,0.77264,30615,-240,0.01498,1
34472,416,0.84386,30887,272,0.07863,1
34360,-112,0.82469,30807,-80,0.05991,1
34584,224,0.86304,31351,544,0.18722,1
34440,-144,0.83838,31415,64,0.20220,1
34280,-160,0.81099,31319,-96,0.17973,1
33896,-384,0.74525,31303,-16,0.17599,1
32663,-1233,0.53416,31559,256,0.23590,1
32663,0,0.53416,31575,16,0.23964,1
32279,-384,0.46841,31895,320,0.31453,1
32023,-256,0.42458,32135,240,0.37070,1
31703,-320,0.36980,32055,-80,0.35198,1
31447,-256,0.32597,32055,0,0.35198,1
31527,80,0.33967,31799,-256,0.29207,1
31079,-448,0.26297,32263,464,0.40066,1
31191,112,0.28214,32599,336,0.47929,1
31655,464,0.36158,32471,-128,0.44933,1
31943,288,0.41089,32407,-64,0.43436,1
32407,464,0.49033,32231,-176,0.39317,1
32952,545,0.58363,31207,-1024,0.15352,1
33624,672,0.69868,31575,368,0.23964,1
34024,400,0.76716,31511,-64,0.22467,1
34072,48,0.77538,31207,-304,0.15352,1
35032,960,0.93974,31031,-176,0.11233,1
34808,-224,0.90139,31255,224,0.16476,1
34744,-64,0.89043,31383,128,0.19471,1
34488,-256,0.84660,31495,112,0.22092,1
34168,-320,0.79182,31735,240,0.27709,1
33448,-720,0.66855,31927,192,0.32202,1
32631,-817,0.52868,32023,96,0.34449,1
31911,-720,0.40541,32327,304,0.41563,1
31415,-496,0.32049,32503,176,0.45682,1
31255,-160,0.29310,32727,224,0.50924,1
31031,-224,0.25475,32792,65,0.52446,1
30247,-784,0.12053,32391,-401,0.43061,1
30839,592,0.22188,32375,-16,0.42687,1
31207,368,0.28488,32375,0,0.42687,1
31271,64,0.29584,31895,-480,0.31453,1
31815,544,0.38897,31591,-304,0.24339,1
32311,496,0.47389,31415,-176,0.20220,1
32679,368,0.53689,31015,-400,0.10859,1
33480,801,0.67403,31159,144,0.14229,1
33896,416,0.74525,31431,272,0.20594,1
34104,208,0.78086,31191,-240,0.14978,1
33432,-672,0.66581,31319,128,0.17973,1
33944,512,0.75347,31095,-224,0.12731,1
33672,-272,0.70690,31143,48,0.13854,1
33256,-416,0.63568,31575,432,0.23964,1
32727,-529,0.54511,31751,176,0.28083,1
