raw_emg1,derivative_emg1,normalized_emg1,raw_emg2,derivative_emg2,normalized_emg2,label
33224,0,0.35585,33112,0,0.41436,1
33192,-32,0.34105,32679,-433,0.32679,1
33112,-80,0.30403,32295,-384,0.24914,1
32792,-320,0.15595,32551,256,0.30091,1
32952,160,0.22999,32727,176,0.33650,1
33336,384,0.40768,32487,-240,0.28797,1
33432,96,0.45211,32215,-272,0.23296,1
33656,224,0.55576,33096,881,0.41112,1
33736,80,0.59278,33624,528,0.51790,1
33528,-208,0.49653,34024,400,0.59879,1
33544,16,0.50393,34024,0,0.59879,1
33368,-176,0.42249,34056,32,0.60526,1
33352,-16,0.41509,34136,80,0.62144,1
33384,32,0.42989,33992,-144,0.59232,1
33576,192,0.51874,33768,-224,0.54702,1
33736,160,0.59278,33384,-384,0.46936,1
33816,80,0.62980,32311,-1073,0.25238,1
33960,144,0.69644,32936,625,0.37877,1
33976,16,0.70384,32888,-48,0.36906,1
34360,384,0.88154,32599,-289,0.31062,1
33144,-1216,0.31883,33144,545,0.42083,1
33704,560,0.57797,33208,64,0.43377,1
34344,640,0.87413,33288,80,0.44995,1
33720,-624,0.58538,33240,-48,0.44024,1
33464,-256,0.46691,33416,176,0.47583,1
33032,-432,0.26701,33096,-320,0.41112,1
33128,96,0.31143,32936,-160,0.37877,1
33384,256,0.42989,32343,-593,0.25885,1
33624,240,0.54095,32583,240,0.30738,1
33576,-48,0.51874,33128,545,0.41759,1
33496,-80,0.48172,33800,672,0.55349,1
33624,128,0.54095,34376,576,0.66997,1
33208,-416,0.34845,34392,16,0.67321,1
33480,272,0.47432,34456,64,0.68615,1
33288,-192,0.38547,34488,32,0.69262,1
33352,64,0.41509,34392,-96,0.67321,1
33464,112,0.46691,34072,-320,0.60849,1
33416,-48,0.44470,34088,16,0.61173,1
33400,-16,0.43730,33688,-400,0.53084,1
33416,16,0.44470,33720,32,0.53731,1
33384,-32,0.42989,33112,-608,0.41436,1
33416,32,0.44470,32856,-256,0.36259,1
33160,-256,0.32624,32087,-769,0.20708,1
33320,160,0.40028,32904,817,0.37230,1
33304,-16,0.39287,32808,-96,0.35288,1
33272,-32,0.37807,32824,16,0.35612,1
33320,48,0.40028,33016,192,0.39494,1
33208,-112,0.34845,33208,192,0.43377,1
33352,144,0.41509,32503,-705,0.29120,1
33384,32,0.42989,33464,961,0.48554,1
32968,-416,0.23739,33336,-128,0.45966,1
33096,128,0.29662,33208,-128,0.43377,1
33608,512,0.53355,33240,32,0.44024,1
33528,-80,0.49653,33576,336,0.50819,1
33512,-16,0.48913,33464,-112,0.48554,1
33560,48,0.51134,33080,-384,0.40789,1
33576,16,0.51874,33000,-80,0.39171,1
33768,192,0.60759,33304,304,0.45319,1
33720,-48,0.58538,33448,144,0.48231,1
33560,-160,0.51134,33176,-272,0.42730,1
33480,-80,0.47432,33112,-64,0.41436,1
33416,-64,0.44470,33096,-16,0.41112,1
33512,96,0.48913,33368,272,0.46613,1
33544,32,0.50393,33464,96,0.48554,1
33704,160,0.57797,33416,-48,0.47583,1
33560,-144,0.51134,33432,16,0.47907,1
33352,-208,0.41509,33256,-176,0.44348,1
33432,80,0.45211,33208,-48,0.43377,1
33448,16,0.45951,33112,-96,0.41436,1
33608,160,0.53355,32984,-128,0.38847,1
33640,32,0.54836,32872,-112,0.36582,1
33928,288,0.68163,32936,64,0.37877,1
33304,-624,0.39287,32968,32,0.38524,1
32647,-657,0.08885,33112,144,0.41436,1
33240,593,0.36326,32663,-449,0.32356,1
33400,160,0.43730,32936,273,0.37877,1
33896,496,0.66682,33704,768,0.53407,1
33640,-256,0.54836,33656,-48,0.52437,1
33368,-272,0.42249,33640,-16,0.52113,1
33144,-224,0.31883,33176,-464,0.42730,1
33064,-80,0.28181,33512,336,0.49525,1
33352,288,0.41509,32327,-1185,0.25561,1
33528,176,0.49653,32423,96,0.27503,1
33416,-112,0.44470,32711,288,0.33327,1
33704,288,0.57797,32679,-32,0.32679,1
33448,-256,0.45951,32407,-272,0.27179,1
33496,48,0.48172,32711,304,0.33327,1
33928,432,0.68163,33048,337,0.40142,1
33896,-32,0.66682,33112,64,0.41436,1
33992,96,0.71124,33272,160,0.44671,1
33704,-288,0.57797,33304,32,0.45319,1
34264,560,0.83711,33320,16,0.45642,1
33672,-592,0.56317,33320,0,0.45642,1
33704,32,0.57797,33368,48,0.46613,1
33656,-48,0.55576,33368,0,0.46613,1
33608,-48,0.53355,33448,80,0.48231,1
33704,96,0.57797,33464,16,0.48554,1
33496,-208,0.48172,33480,16,0.48878,1
33704,208,0.57797,33512,32,0.49525,1
33528,-176,0.49653,33512,0,0.49525,1
33544,16,0.50393,33352,-160,0.46289,1
33640,96,0.54836,33368,16,0.46613,1
33576,-64,0.51874,33384,16,0.46936,1
33624,48,0.54095,33448,64,0.48231,1
33496,-128,0.48172,33272,-176,0.44671,1
33736,240,0.59278,33016,-256,0.39494,1
33560,-176,0.51134,32824,-192,0.35612,1
33288,-272,0.38547,32824,0,0.35612,1
33336,48,0.40768,32968,144,0.38524,1
33496,160,0.48172,33272,304,0.44671,1
33512,16,0.48913,33352,80,0.46289,1
33432,-80,0.45211,33080,-272,0.40789,1
33416,-16,0.44470,32920,-160,0.37553,1
33272,-144,0.37807,33048,128,0.40142,1
33752,480,0.60019,33128,80,0.41759,1
34120,368,0.77048,33224,96,0.43701,1
33992,-128,0.71124,33064,-160,0.40465,1
33480,-512,0.47432,32727,-337,0.33650,1
33288,-192,0.38547,32840,113,0.35935,1
33304,16,0.39287,33128,288,0.41759,1
33208,-96,0.34845,32824,-304,0.35612,1
33000,-208,0.25220,32199,-625,0.22973,1
33368,368,0.42249,32920,721,0.37553,1
33464,96,0.46691,33032,112,0.39818,1
33480,16,0.47432,33432,400,0.47907,1
33496,16,0.48172,32952,-480,0.38200,1
33368,-128,0.42249,33048,96,0.40142,1
33368,0,0.42249,32840,-208,0.35935,1
33400,32,0.43730,32984,144,0.38847,1
33384,-16,0.42989,33112,128,0.41436,1
33384,0,0.42989,33016,-96,0.39494,1
33368,-16,0.42249,33064,48,0.40465,1
33432,64,0.45211,33208,144,0.43377,1
33064,-368,0.28181,33624,416,0.51790,1
33816,752,0.62980,33656,32,0.52437,1
33592,-224,0.52615,32631,-1025,0.31709,1
33336,-256,0.40768,33256,625,0.44348,1
33848,512,0.64461,33176,-80,0.42730,1
33752,-96,0.60019,33240,64,0.44024,1
33640,-112,0.54836,33448,208,0.48231,1
33592,-48,0.52615,33720,272,0.53731,1
33592,0,0.52615,33736,16,0.54055,1
33656,64,0.55576,33912,176,0.57614,1
33768,112,0.60759,33880,-32,0.56967,1
33624,-144,0.54095,33672,-208,0.52760,1
33704,80,0.57797,33592,-80,0.51143,1
33496,-208,0.48172,33400,-192,0.47260,1
33480,-16,0.47432,33288,-112,0.44995,1
33400,-80,0.43730,32952,-336,0.38200,1
33224,-176,0.35585,32952,0,0.38200,1
33256,32,0.37066,33112,160,0.41436,1
33496,240,0.48172,32551,-561,0.30091,1
33240,-256,0.36326,33032,481,0.39818,1
33944,704,0.68903,32808,-224,0.35288,1
34008,64,0.71865,33752,944,0.54378,1
34104,96,0.76307,33704,-48,0.53407,1
34120,16,0.77048,33800,96,0.55349,1
33736,-384,0.59278,34056,256,0.60526,1
33528,-208,0.49653,33624,-432,0.51790,1
33624,96,0.54095,33624,0,0.51790,1
33384,-240,0.42989,33192,-432,0.43054,1
33000,-384,0.25220,32872,-320,0.36582,1
32936,-64,0.22258,32904,32,0.37230,1
33112,176,0.30403,32952,48,0.38200,1
32968,-144,0.23739,33112,160,0.41436,1
33320,352,0.40028,33032,-80,0.39818,1
33016,-304,0.25960,32936,-96,0.37877,1
33064,48,0.28181,32776,-160,0.34641,1
33128,64,0.31143,33128,352,0.41759,1
32727,-401,0.12587,33560,432,0.50495,1
32824,97,0.17075,33560,0,0.50495,1
33208,384,0.34845,33016,-544,0.39494,1
33224,16,0.35585,33480,464,0.48878,1
33240,16,0.36326,33640,160,0.52113,1
33048,-192,0.27441,33736,96,0.54055,1
33320,272,0.40028,33752,16,0.54378,1
33320,0,0.40028,33704,-48,0.53407,1
33464,144,0.46691,33720,16,0.53731,1
33224,-240,0.35585,33384,-336,0.46936,1
33400,176,0.43730,33336,-48,0.45966,1
33176,-224,0.33364,33112,-224,0.41436,1
33000,-176,0.25220,33128,16,0.41759,1
32968,-32,0.23739,33096,-32,0.41112,1
33480,512,0.47432,33432,336,0.47907,1
33352,-128,0.41509,33768,336,0.54702,1
32663,-689,0.09625,33656,-112,0.52437,1
33288,625,0.38547,34072,416,0.60849,1
32808,-480,0.16335,33496,-576,0.49201,1
33352,544,0.41509,33272,-224,0.44671,1
33352,0,0.41509,33592,320,0.51143,1
33448,96,0.45951,33416,-176,0.47583,1
33336,-112,0.40768,33528,112,0.49848,1
32599,-737,0.06664,33592,64,0.51143,1
33272,673,0.37807,33752,160,0.54378,1
33144,-128,0.31883,33384,-368,0.46936,1
33128,-16,0.31143,32968,-416,0.38524,1
33208,80,0.34845,32984,16,0.38847,1
33384,176,0.42989,33000,16,0.39171,1
33576,192,0.51874,33496,496,0.49201,1
33608,32,0.53355,33800,304,0.55349,1
33464,-144,0.46691,33624,-176,0.51790,1
33592,128,0.52615,33560,-64,0.50495,1
33640,48,0.54836,33304,-256,0.45319,1
33736,96,0.59278,33560,256,0.50495,1
33960,224,0.69644,34040,480,0.60202,1
33640,-320,0.54836,33880,-160,0.56967,1
33192,-448,0.34105,33544,-336,0.50172,1
33176,-16,0.33364,33560,16,0.50495,1
33288,112,0.38547,33592,32,0.51143,1
33400,112,0.43730,33560,-32,0.50495,1
33512,112,0.48913,33800,240,0.55349,1
33640,128,0.54836,33976,176,0.58908,1
33880,240,0.65942,33832,-144,0.55996,1
33832,-48,0.63721,33960,128,0.58584,1
33784,-48,0.61499,34008,48,0.59555,1
32968,-816,0.23739,33144,-864,0.42083,1
33432,464,0.45211,33736,592,0.54055,1
33528,96,0.49653,33640,-96,0.52113,1
33528,0,0.49653,33576,-64,0.50819,1
33464,-64,0.46691,33464,-112,0.48554,1
33416,-48,0.44470,33368,-96,0.46613,1
33608,192,0.53355,33624,256,0.51790,1
33624,16,0.54095,33720,96,0.53731,1
33304,-320,0.39287,33512,-208,0.49525,1
33288,-16,0.38547,33448,-64,0.48231,1
33288,0,0.38547,33288,-160,0.44995,1
33272,-16,0.37807,32904,-384,0.37230,1
33352,80,0.41509,33400,496,0.47260,1
33416,64,0.44470,33688,288,0.53084,1
32792,-624,0.15595,33864,176,0.56643,1
33544,752,0.50393,33560,-304,0.50495,1
33560,16,0.51134,33256,-304,0.44348,1
33416,-144,0.44470,33240,-16,0.44024,1
33192,-224,0.34105,33240,0,0.44024,1
33480,288,0.47432,33944,704,0.58261,1
33256,-224,0.37066,33160,-784,0.42406,1
33560,304,0.51134,33000,-160,0.39171,1
33720,160,0.58538,32936,-64,0.37877,1
33592,-128,0.52615,32888,-48,0.36906,1
33560,-32,0.51134,33016,128,0.39494,1
33480,-80,0.47432,32952,-64,0.38200,1
33480,0,0.47432,33240,288,0.44024,1
34344,864,0.87413,33096,-144,0.41112,1
33912,-432,0.67422,33176,80,0.42730,1
33752,-160,0.60019,33672,496,0.52760,1
33240,-512,0.36326,33528,-144,0.49848,1
33672,432,0.56317,33064,-464,0.40465,1
33752,80,0.60019,33048,-16,0.40142,1
33416,-336,0.44470,32840,-208,0.35935,1
33400,-16,0.43730,32920,80,0.37553,1
33512,112,0.48913,33096,176,0.41112,1
33432,-80,0.45211,32519,-577,0.29444,1
33496,64,0.48172,33416,897,0.47583,1
33448,-48,0.45951,33864,448,0.56643,1
33368,-80,0.42249,34200,336,0.63438,1
33672,304,0.56317,34008,-192,0.59555,1
33640,-32,0.54836,33880,-128,0.56967,1
33704,64,0.57797,33992,112,0.59232,1
33672,-32,0.56317,34184,192,0.63114,1
33624,-48,0.54095,33944,-240,0.58261,1
33560,-64,0.51134,33720,-224,0.53731,1
33528,-32,0.49653,33576,-144,0.50819,1
33528,0,0.49653,33480,-96,0.48878,1
33672,144,0.56317,33464,-16,0.48554,1
33816,144,0.62980,33560,96,0.50495,1
33992,176,0.71124,33576,16,0.50819,1
34376,384,0.88894,33560,-16,0.50495,1
34616,240,1.00000,33240,-320,0.44024,1
34232,-384,0.82230,33368,128,0.46613,1
33976,-256,0.70384,33928,560,0.57937,1
33432,-544,0.45211,33800,-128,0.55349,1
33320,-112,0.40028,33144,-656,0.42083,1
33048,-272,0.27441,33288,144,0.44995,1
33032,-16,0.26701,33384,96,0.46936,1
33608,576,0.53355,33592,208,0.51143,1
33080,-528,0.28922,33288,-304,0.44995,1
33032,-48,0.26701,33368,80,0.46613,1
33288,256,0.38547,33320,-48,0.45642,1
33368,80,0.42249,33240,-80,0.44024,1
33304,-64,0.39287,33112,-128,0.41436,1
33672,368,0.56317,33848,736,0.56320,1
33672,0,0.56317,33560,-288,0.50495,1
33624,-48,0.54095,33192,-368,0.43054,1
33624,0,0.54095,33096,-96,0.41112,1
33464,-160,0.46691,32920,-176,0.37553,1
33256,-208,0.37066,32920,0,0.37553,1
32936,-320,0.22258,32856,-64,0.36259,1
32920,-16,0.21518,32888,32,0.36906,1
33176,256,0.33364,34536,1648,0.70233,1
33240,64,0.36326,34392,-144,0.67321,1
33240,0,0.36326,34056,-336,0.60526,1
33240,0,0.36326,33928,-128,0.57937,1
33352,112,0.41509,33944,16,0.58261,1
33432,80,0.45211,34120,176,0.61820,1
33416,-16,0.44470,33912,-208,0.57614,1
33352,-64,0.41509,34072,160,0.60849,1
33304,-48,0.39287,35256,1184,0.84793,1
33192,-112,0.34105,35208,-48,0.83822,1
32808,-384,0.16335,34312,-896,0.65703,1
33128,320,0.31143,34152,-160,0.62467,1
33160,32,0.32624,33496,-656,0.49201,1
33208,48,0.34845,33128,-368,0.41759,1
33192,-16,0.34105,32904,-224,0.37230,1
33064,-128,0.28181,33192,288,0.43054,1
33480,416,0.47432,33400,208,0.47260,1
33464,-16,0.46691,33272,-128,0.44671,1
33496,32,0.48172,33112,-160,0.41436,1
33496,0,0.48172,33064,-48,0.40465,1
33416,-80,0.44470,32936,-128,0.37877,1
32872,-544,0.19297,33144,208,0.42083,1
33336,464,0.40768,33112,-32,0.41436,1
33528,192,0.49653,33272,160,0.44671,1
33848,320,0.64461,33768,496,0.54702,1
33992,144,0.71124,33944,176,0.58261,1
33928,-64,0.68163,34040,96,0.60202,1
34008,80,0.71865,33656,-384,0.52437,1
34040,32,0.73346,33384,-272,0.46936,1
33880,-160,0.65942,33144,-240,0.42083,1
33592,-288,0.52615,32776,-368,0.34641,1
33496,-96,0.48172,32904,128,0.37230,1
33400,-96,0.43730,32840,-64,0.35935,1
33240,-160,0.36326,32888,48,0.36906,1
33288,48,0.38547,34728,1840,0.74115,1
33240,-48,0.36326,34600,-128,0.71527,1
33528,288,0.49653,34088,-512,0.61173,1
33032,-496,0.26701,32952,-1136,0.38200,1
33224,192,0.35585,33096,144,0.41112,1
33512,288,0.48913,33320,224,0.45642,1
33560,48,0.51134,33112,-208,0.41436,1
33576,16,0.51874,33448,336,0.48231,1
33528,-48,0.49653,34776,1328,0.75086,1
33272,-256,0.37807,34424,-352,0.67968,1
33400,128,0.43730,33800,-624,0.55349,1
33688,288,0.57057,33768,-32,0.54702,1
33672,-16,0.56317,32872,-896,0.36582,1
33560,-112,0.51134,33384,512,0.46936,1
33544,-16,0.50393,33720,336,0.53731,1
33624,80,0.54095,33832,112,0.55996,1
33592,-32,0.52615,33528,-304,0.49848,1
33528,-64,0.49653,32792,-736,0.34965,1
33480,-48,0.47432,33928,1136,0.57937,1
32792,-688,0.15595,33976,48,0.58908,1
33032,240,0.26701,33752,-224,0.54378,1
33224,192,0.35585,33608,-144,0.51466,1
33400,176,0.43730,33512,-96,0.49525,1
33320,-80,0.40028,33000,-512,0.39171,1
33336,16,0.40768,32327,-673,0.25561,1
33496,160,0.48172,32327,0,0.25561,1
33608,112,0.53355,32423,96,0.27503,1
33688,80,0.57057,32471,48,0.28473,1
33784,96,0.61499,34328,1857,0.66026,1
33752,-32,0.60019,34088,-240,0.61173,1
34040,288,0.73346,35064,976,0.80910,1
34184,144,0.80009,34504,-560,0.69585,1
34344,160,0.87413,35560,1056,0.90940,1
34312,-32,0.85932,35000,-560,0.79616,1
34296,-16,0.85192,35832,832,0.96441,1
33944,-352,0.68903,34824,-1008,0.76057,1
34056,112,0.74086,35928,1104,0.98382,1
33560,-496,0.51134,35208,-720,0.83822,1
33256,-304,0.37066,35704,496,0.93852,1
33144,-112,0.31883,34568,-1136,0.70880,1
33224,80,0.35585,35432,864,0.88352,1
33032,-192,0.26701,34552,-880,0.70556,1
33128,96,0.31143,34600,48,0.71527,1
32920,-208,0.21518,33960,-640,0.58584,1
33224,304,0.35585,33864,-96,0.56643,1
32936,-288,0.22258,33624,-240,0.51790,1
33336,400,0.40768,33416,-208,0.47583,1
33384,48,0.42989,33256,-160,0.44348,1
33528,144,0.49653,32984,-272,0.38847,1
33752,224,0.60019,32952,-32,0.38200,1
33768,16,0.60759,32776,-176,0.34641,1
33784,16,0.61499,32968,192,0.38524,1
34472,688,0.93336,34536,1568,0.70233,1
33672,-800,0.56317,34456,-80,0.68615,1
33640,-32,0.54836,35624,1168,0.92235,1
33544,-96,0.50393,34568,-1056,0.70880,1
33672,128,0.56317,35944,1376,0.98706,1
33544,-128,0.50393,34616,-1328,0.71850,1
33480,-64,0.47432,34744,128,0.74439,1
34360,880,0.88154,33640,-1104,0.52113,1
33528,-832,0.49653,33240,-400,0.44024,1
33528,0,0.49653,32984,-256,0.38847,1
33608,80,0.53355,33992,1008,0.59232,1
33496,-112,0.48172,32936,-1056,0.37877,1
33416,-80,0.44470,32695,-241,0.33003,1
33128,-288,0.31143,31895,-800,0.16825,1
33384,256,0.42989,32343,448,0.25885,1
33752,368,0.60019,33752,1409,0.54378,1
32984,-768,0.24479,34888,1136,0.77351,1
33816,832,0.62980,36008,1120,1.00000,1
33928,112,0.68163,35304,-704,0.85763,1
33896,-32,0.66682,34760,-544,0.74762,1
33704,-192,0.57797,34472,-288,0.68938,1
33768,64,0.60759,34200,-272,0.63438,1
33800,32,0.62240,33656,-544,0.52437,1
33672,-128,0.56317,33384,-272,0.46936,1
32936,-736,0.22258,32936,-448,0.37877,1
32776,-160,0.14854,32215,-721,0.23296,1
32455,-321,0.00000,32455,240,0.28150,1
32968,513,0.23739,32247,-208,0.23943,1
33064,96,0.28181,32103,-144,0.21031,1
33112,48,0.30403,32039,-64,0.19737,1
32856,-256,0.18556,32023,-16,0.19414,1
33080,224,0.28922,31879,-144,0.16502,1
33112,32,0.30403,31991,112,0.18766,1
33016,-96,0.25960,32119,128,0.21355,1
33160,144,0.32624,32343,224,0.25885,1
33192,32,0.34105,32295,-48,0.24914,1
32840,-352,0.17816,32535,240,0.29767,1
33384,544,0.42989,32487,-48,0.28797,1
33032,-352,0.26701,32551,64,0.30091,1
33480,448,0.47432,32519,-32,0.29444,1
33368,-112,0.42249,32567,48,0.30415,1
33368,0,0.42249,32631,64,0.31709,1
33400,32,0.43730,32727,96,0.33650,1
33592,192,0.52615,32711,-16,0.33327,1
33512,-80,0.48913,32631,-80,0.31709,1
33464,-48,0.46691,32679,48,0.32679,1
33672,208,0.56317,32952,273,0.38200,1
33528,-144,0.49653,32888,-64,0.36906,1
33512,-16,0.48913,32647,-241,0.32032,1
33624,112,0.54095,32615,-32,0.31385,1
33416,-208,0.44470,32199,-416,0.22973,1
33256,-160,0.37066,31959,-240,0.18119,1
33352,96,0.41509,31959,0,0.18119,1
33560,208,0.51134,32535,576,0.29767,1
33160,-400,0.32624,32439,-96,0.27826,1
33592,432,0.52615,32808,369,0.35288,1
33656,64,0.55576,32711,-97,0.33327,1
34088,432,0.75567,32936,225,0.37877,1
33880,-208,0.65942,33176,240,0.42730,1
33528,-352,0.49653,33160,-16,0.42406,1
33688,160,0.57057,33016,-144,0.39494,1
33656,-32,0.55576,32872,-144,0.36582,1
33368,-288,0.42249,32872,0,0.36582,1
33416,48,0.44470,32824,-48,0.35612,1
33320,-96,0.40028,31959,-865,0.18119,1
33272,-48,0.37807,33048,1089,0.40142,1
33304,32,0.39287,33320,272,0.45642,1
33256,-48,0.37066,32968,-352,0.38524,1
32776,-480,0.14854,32727,-241,0.33650,1
32840,64,0.17816,32856,129,0.36259,1
32487,-353,0.01481,33240,384,0.44024,1
32872,385,0.19297,32135,-1105,0.21678,1
32984,112,0.24479,32776,641,0.34641,1
33464,480,0.46691,32936,160,0.37877,1
33304,-160,0.39287,33016,80,0.39494,1
33544,240,0.50393,33240,224,0.44024,1
33528,-16,0.49653,33272,32,0.44671,1
33320,-208,0.40028,33304,32,0.45319,1
33544,224,0.50393,33368,64,0.46613,1
33592,48,0.52615,33560,192,0.50495,1
33656,64,0.55576,33464,-96,0.48554,1
33704,48,0.57797,34312,848,0.65703,1
34008,304,0.71865,33144,-1168,0.42083,1
34120,112,0.77048,33176,32,0.42730,1
34232,112,0.82230,32856,-320,0.36259,1
34280,48,0.84452,32471,-385,0.28473,1
33544,-736,0.50393,32647,176,0.32032,1
33976,432,0.70384,33096,449,0.41112,1
33688,-288,0.57057,33176,80,0.42730,1
33432,-256,0.45211,32920,-256,0.37553,1
32727,-705,0.12587,32840,-80,0.35935,1
33192,465,0.34105,32984,144,0.38847,1
33144,-48,0.31883,33112,128,0.41436,1
33096,-48,0.29662,33144,32,0.42083,1
33160,64,0.32624,33480,336,0.48878,1
33048,-112,0.27441,34008,528,0.59555,1
33032,-16,0.26701,34280,272,0.65056,1
32824,-208,0.17075,34104,-176,0.61496,1
33768,944,0.60759,33480,-624,0.48878,1
32840,-928,0.17816,32808,-672,0.35288,1
32920,80,0.21518,32183,-625,0.22649,1
33080,160,0.28922,31911,-272,0.17149,1
33016,-64,0.25960,32151,240,0.22002,1
33416,400,0.44470,32183,32,0.22649,1
33128,-288,0.31143,31063,-1120,0.00000,1
33240,112,0.36326,31767,704,0.14237,1
33096,-144,0.29662,32087,320,0.20708,1
33336,240,0.40768,32519,432,0.29444,1
33544,208,0.50393,32583,64,0.30738,1
33576,32,0.51874,32567,-16,0.30415,1
33624,48,0.54095,32615,48,0.31385,1
33656,32,0.55576,32279,-336,0.24590,1
33576,-80,0.51874,32247,-32,0.23943,1
33816,240,0.62980,32407,160,0.27179,1
33880,64,0.65942,32007,-400,0.19090,1
33832,-48,0.63721,33016,1009,0.39494,1
33688,-144,0.57057,33096,80,0.41112,1
33416,-272,0.44470,33032,-64,0.39818,1
33608,192,0.53355,34040,1008,0.60202,1
33464,-144,0.46691,33976,-64,0.58908,1
33608,144,0.53355,33640,-336,0.52113,1
33704,96,0.57797,33624,-16,0.51790,1
33784,80,0.61499,33448,-176,0.48231,1
33720,-64,0.58538,33272,-176,0.44671,1
33384,-336,0.42989,33272,0,0.44671,1
33592,208,0.52615,33096,-176,0.41112,1
34040,0,0.44989,37465,0,0.75542,0
33752,-288,0.42734,37033,-432,0.72756,0
33000,-752,0.36846,37385,352,0.75026,0
30967,-2033,0.20929,38489,1104,0.82145,0
29735,-1232,0.11282,38617,128,0.82970,0
29815,80,0.11909,38857,240,0.84518,0
29895,80,0.12535,36728,-2129,0.70789,0
30391,496,0.16419,33816,-2912,0.52012,0
31271,880,0.23309,31415,-2401,0.36530,0
31671,400,0.26441,29895,-1520,0.26728,0
32359,688,0.31827,30615,720,0.31371,0
32840,481,0.35593,31319,704,0.35910,0
33992,1152,0.44613,31207,-112,0.35188,0
35064,1072,0.53007,31559,352,0.37458,0
35688,624,0.57892,32583,1024,0.44061,0
35592,-96,0.57141,32391,-192,0.42823,0
35640,48,0.57516,32631,240,0.44371,0
35544,-96,0.56765,33768,1137,0.51702,0
34712,-832,0.50251,35160,1392,0.60678,0
33672,-1040,0.42108,36200,1040,0.67385,0
32840,-832,0.35593,36536,336,0.69551,0
31735,-1105,0.26942,35944,-592,0.65734,0
32231,496,0.30825,34536,-1408,0.56655,0
33336,1105,0.39477,33224,-1312,0.48194,0
33256,-80,0.38851,31511,-1713,0.37149,0
33608,352,0.41607,31031,-480,0.34053,0
34328,720,0.47244,32103,1072,0.40966,0
34296,-32,0.46993,33848,1745,0.52218,0
33688,-608,0.42233,36040,2192,0.66353,0
32663,-1025,0.34208,37417,1377,0.75232,0
32567,-96,0.33456,38457,1040,0.81938,0
32727,160,0.34709,38361,-96,0.81319,0
33800,1073,0.43110,36969,-1392,0.72343,0
33864,64,0.43611,34264,-2705,0.54901,0
33464,-400,0.40479,31959,-2305,0.40037,0
33064,-400,0.37347,32343,384,0.42514,0
33048,-16,0.37222,32391,48,0.42823,0
33192,144,0.38350,33032,641,0.46956,0
34104,912,0.45490,33640,608,0.50877,0
35176,1072,0.53883,33976,336,0.53044,0
35304,128,0.54886,33560,-416,0.50361,0
35752,448,0.58393,33560,0,0.50361,0
35496,-256,0.56389,32856,-704,0.45822,0
34808,-688,0.51002,31879,-977,0.39522,0
34040,-768,0.44989,32535,656,0.43752,0
33512,-528,0.40855,35384,2849,0.62123,0
33560,48,0.41231,36776,1392,0.71099,0
35176,1616,0.53883,36264,-512,0.67797,0
36744,1568,0.66160,36504,240,0.69345,0
36136,-608,0.61400,36584,80,0.69861,0
35384,-752,0.55512,35608,-976,0.63567,0
34760,-624,0.50626,34136,-1472,0.54075,0
34440,-320,0.48121,34376,240,0.55623,0
34200,-240,0.46242,35432,1056,0.62432,0
35096,896,0.53257,34872,-560,0.58821,0
35480,384,0.56264,32151,-2721,0.41275,0
34104,-1376,0.45490,29751,-2400,0.25800,0
33144,-960,0.37974,28470,-1281,0.17539,0
32952,-192,0.36470,27734,-736,0.12793,0
32984,32,0.36721,28951,1217,0.20641,0
30919,-2065,0.20553,30439,1488,0.30236,0
28534,-2385,0.01879,31559,1120,0.37458,0
28294,-240,0.00000,33848,2289,0.52218,0
29607,1313,0.10280,34920,1072,0.59131,0
30167,560,0.14665,36328,1408,0.68210,0
30567,400,0.17797,37913,1585,0.78430,0
30983,416,0.21054,38921,1008,0.84930,0
31479,496,0.24937,39465,544,0.88438,0
31815,336,0.27568,38729,-736,0.83692,0
32231,416,0.30825,37193,-1536,0.73788,0
32439,208,0.32454,33720,-3473,0.51393,0
33752,1313,0.42734,32439,-1281,0.43133,0
35096,1344,0.53257,31959,-480,0.40037,0
36376,1280,0.63279,32792,833,0.45409,0
37945,1569,0.75564,33576,784,0.50464,0
39913,1968,0.90972,33336,-240,0.48917,0
39961,48,0.91348,33432,96,0.49536,0
38857,-1104,0.82704,32199,-1233,0.41585,0
37961,-896,0.75689,33272,1073,0.48504,0
36921,-1040,0.67546,34216,944,0.54591,0
34952,-1969,0.52130,33128,-1088,0.47575,0
33432,-1520,0.40229,32407,-721,0.42926,0
32007,-1425,0.29071,33176,769,0.47885,0
31191,-816,0.22682,32615,-561,0.44267,0
30055,-1136,0.13788,33224,609,0.48194,0
29831,-224,0.12034,34504,1280,0.56448,0
29655,-176,0.10656,34792,288,0.58305,0
29815,160,0.11909,34168,-624,0.54282,0
30199,384,0.14915,34344,176,0.55417,0
31127,928,0.22181,34520,176,0.56551,0
31591,464,0.25814,35032,512,0.59853,0
31831,240,0.27693,34536,-496,0.56655,0
31895,64,0.28194,36136,1600,0.66972,0
31959,64,0.28696,36921,785,0.72034,0
32583,624,0.33581,36792,-129,0.71202,0
32904,321,0.36095,36008,-784,0.66147,0
33256,352,0.38851,35672,-336,0.63980,0
35064,1808,0.53007,36264,592,0.67797,0
36408,1344,0.63530,35880,-384,0.65321,0
35928,-480,0.59771,33976,-1904,0.53044,0
35736,-192,0.58268,32679,-1297,0.44680,0
35224,-512,0.54259,32551,-128,0.43855,0
35768,544,0.58519,32808,257,0.45512,0
35000,-768,0.52505,34120,1312,0.53972,0
34056,-944,0.45114,35640,1520,0.63774,0
33480,-576,0.40604,37289,1649,0.74407,0
33096,-384,0.37598,39065,1776,0.85859,0
33384,288,0.39853,39817,752,0.90708,0
33048,-336,0.37222,39353,-464,0.87716,0
33240,192,0.38725,39289,-64,0.87303,0
34264,1024,0.46743,37737,-1552,0.77296,0
35928,1664,0.59771,34552,-3185,0.56758,0
34680,-1248,0.50000,31255,-3297,0.35498,0
34056,-624,0.45114,30295,-960,0.29307,0
33288,-768,0.39101,29895,-400,0.26728,0
33352,64,0.39602,30871,976,0.33022,0
32551,-801,0.33331,30647,-224,0.31577,0
32792,241,0.35218,30455,-192,0.30339,0
32920,128,0.36220,32391,1936,0.42823,0
33400,480,0.39978,32135,-256,0.41172,0
33480,80,0.40604,32936,801,0.46337,0
31927,-1553,0.28445,33992,1056,0.53147,0
30535,-1392,0.17546,34296,304,0.55107,0
30823,288,0.19801,35288,992,0.61504,0
31671,848,0.26441,36008,720,0.66147,0
32055,384,0.29447,35560,-448,0.63258,0
32279,224,0.31201,35992,432,0.66043,0
33032,753,0.37097,36856,864,0.71615,0
33640,608,0.41857,36953,97,0.72240,0
33544,-96,0.41106,37465,512,0.75542,0
35448,1904,0.56013,38185,720,0.80184,0
36937,1489,0.67671,38265,80,0.80700,0
38761,1824,0.81953,37225,-1040,0.73994,0
39065,304,0.84333,35880,-1345,0.65321,0
37225,-1840,0.69926,32727,-3153,0.44990,0
37097,-128,0.68924,30039,-2688,0.27657,0
36856,-241,0.67037,29015,-1024,0.21054,0
35848,-1008,0.59145,28695,-320,0.18990,0
34584,-1264,0.49248,29431,736,0.23736,0
33000,-1584,0.36846,31303,1872,0.35807,0
31223,-1777,0.22933,32663,1360,0.44577,0
30663,-560,0.18548,33112,449,0.47472,0
31847,1184,0.27819,33096,-16,0.47369,0
31415,-432,0.24436,31847,-1249,0.39315,0
32279,864,0.31201,32167,320,0.41379,0
33736,1457,0.42609,32423,256,0.43029,0
32727,-1009,0.34709,33176,753,0.47885,0
32984,257,0.36721,34600,1424,0.57067,0
33992,1008,0.44613,34936,336,0.59234,0
34184,192,0.46117,34312,-624,0.55210,0
34664,480,0.49875,35224,912,0.61091,0
35336,672,0.55136,36312,1088,0.68107,0
34872,-464,0.51503,37209,897,0.73891,0
33080,-1792,0.37473,37209,0,0.73891,0
32391,-689,0.32078,38249,1040,0.80597,0
32231,-160,0.30825,37193,-1056,0.73788,0
33352,1121,0.39602,35304,-1889,0.61607,0
33528,176,0.40980,33240,-2064,0.48298,0
33864,336,0.43611,32151,-1089,0.41275,0
34088,224,0.45365,31287,-864,0.35704,0
34392,304,0.47745,30615,-672,0.31371,0
34344,-48,0.47369,29319,-1296,0.23014,0
34600,256,0.49374,29255,-64,0.22601,0
34504,-96,0.48622,29239,-16,0.22498,0
33976,-528,0.44488,29543,304,0.24458,0
32776,-1200,0.35092,30695,1152,0.31887,0
31351,-1425,0.23935,31511,816,0.37149,0
30295,-1056,0.15667,33064,1553,0.47163,0
30599,304,0.18047,34184,1120,0.54385,0
31559,960,0.25564,34392,208,0.55726,0
32199,640,0.30575,34408,16,0.55829,0
32247,48,0.30951,34376,-32,0.55623,0
31799,-448,0.27443,35224,848,0.61091,0
31575,-224,0.25689,37193,1969,0.73788,0
31031,-544,0.21430,36712,-481,0.70686,0
31015,-16,0.21304,37257,545,0.74200,0
30903,-112,0.20427,37433,176,0.75335,0
31895,992,0.28194,37865,432,0.78121,0
31895,0,0.28194,37081,-784,0.73066,0
31815,-80,0.27568,36969,-112,0.72343,0
32615,800,0.33832,36552,-417,0.69654,0
33304,689,0.39226,35624,-928,0.63670,0
34376,1072,0.47620,34376,-1248,0.55623,0
36104,1728,0.61149,33960,-416,0.52940,0
35896,-208,0.59521,30039,-3921,0.27657,0
36472,576,0.64031,29991,-48,0.27347,0
36680,208,0.65659,30935,944,0.33434,0
36040,-640,0.60648,32087,1152,0.40863,0
35720,-320,0.58143,32535,448,0.43752,0
34520,-1200,0.48747,33144,609,0.47679,0
33528,-992,0.40980,33560,416,0.50361,0
33160,-368,0.38099,34216,656,0.54591,0
31975,-1185,0.28821,33656,-560,0.50980,0
31191,-784,0.22682,34696,1040,0.57686,0
31431,240,0.24562,34296,-400,0.55107,0
31799,368,0.27443,34104,-192,0.53869,0
32087,288,0.29698,34376,272,0.55623,0
33128,1041,0.37848,34712,336,0.57790,0
34184,1056,0.46117,36456,1744,0.69035,0
34408,224,0.47870,36792,336,0.71202,0
33544,-864,0.41106,38137,1345,0.79875,0
33176,-368,0.38224,38665,528,0.83280,0
33256,80,0.38851,39049,384,0.85756,0
33032,-224,0.37097,39017,-32,0.85549,0
32647,-385,0.34082,38793,-224,0.84105,0
32856,209,0.35719,36408,-2385,0.68726,0
33688,832,0.42233,33480,-2928,0.49845,0
34136,448,0.45741,30007,-3473,0.27450,0
34360,224,0.47495,29047,-960,0.21260,0
34664,304,0.49875,29511,464,0.24252,0
34712,48,0.50251,29559,48,0.24562,0
33704,-1008,0.42358,30439,880,0.30236,0
32776,-928,0.35092,30791,352,0.32506,0
32727,-49,0.34709,30999,208,0.33847,0
33064,337,0.37347,31191,192,0.35085,0
33352,288,0.39602,33496,2305,0.49948,0
33848,496,0.43486,35464,1968,0.62639,0
34392,544,0.47745,35880,416,0.65321,0
33368,-1024,0.39728,36552,672,0.69654,0
33000,-368,0.36846,36921,369,0.72034,0
32039,-961,0.29322,37705,784,0.77089,0
32215,176,0.30700,37769,64,0.77502,0
32167,-48,0.30324,37513,-256,0.75851,0
34232,2065,0.46492,37849,336,0.78018,0
34376,144,0.47620,37353,-496,0.74819,0
35608,1232,0.57266,35800,-1553,0.64805,0
36856,1248,0.67037,34824,-976,0.58512,0
39209,2353,0.85460,34296,-528,0.55107,0
39705,496,0.89344,34184,-112,0.54385,0
37705,-2000,0.73685,35288,1104,0.61504,0
36216,-1489,0.62026,36536,1248,0.69551,0
35064,-1152,0.53007,35368,-1168,0.62020,0
33528,-1536,0.40980,33160,-2208,0.47782,0
32952,-576,0.36470,32952,-208,0.46441,0
32103,-849,0.29823,33016,64,0.46853,0
32183,80,0.30449,32776,-240,0.45306,0
31911,-272,0.28320,31687,-1089,0.38283,0
32936,1025,0.36345,30855,-832,0.32918,0
33912,976,0.43987,29607,-1248,0.24871,0
33784,-128,0.42985,27798,-1809,0.13206,0
32503,-1281,0.32955,26518,-1280,0.04952,0
31911,-592,0.28320,26902,384,0.07428,0
32023,112,0.29197,28182,1280,0.15682,0
31623,-400,0.26065,29143,961,0.21879,0
31079,-544,0.21806,31815,2672,0.39109,0
29815,-1264,0.11909,33544,1729,0.50258,0
30215,400,0.15041,35080,1536,0.60162,0
31479,1264,0.24937,35736,656,0.64393,0
33096,1617,0.37598,36104,368,0.66766,0
33816,720,0.43235,35640,-464,0.63774,0
33480,-336,0.40604,34648,-992,0.57377,0
33368,-112,0.39728,34136,-512,0.54075,0
32695,-673,0.34458,32888,-1248,0.46028,0
32776,81,0.35092,31719,-1169,0.38490,0
33320,544,0.39352,32119,400,0.41069,0
32936,-384,0.36345,32535,416,0.43752,0
32103,-833,0.29823,33512,977,0.50052,0
32663,560,0.34208,34424,912,0.55932,0
33272,609,0.38976,35032,608,0.59853,0
33544,272,0.41106,34744,-288,0.57996,0
33992,448,0.44613,33832,-912,0.52115,0
34680,688,0.50000,32583,-1249,0.44061,0
36344,1664,0.63029,31591,-992,0.37664,0
36184,-160,0.61776,30647,-944,0.31577,0
33576,-2608,0.41356,30439,-208,0.30236,0
32327,-1249,0.31577,30471,32,0.30442,0
32183,-144,0.30449,30823,352,0.32712,0
32567,384,0.33456,32391,1568,0.42823,0
31799,-768,0.27443,34024,1633,0.53353,0
31383,-416,0.24186,35128,1104,0.60472,0
31271,-112,0.23309,35768,640,0.64599,0
31367,96,0.24060,35752,-16,0.64496,0
32087,720,0.29698,35320,-432,0.61710,0
32888,801,0.35969,35128,-192,0.60472,0
32711,-177,0.34583,35336,208,0.61813,0
33064,353,0.37347,35912,576,0.65527,0
33304,240,0.39226,36168,256,0.67178,0
32439,-865,0.32454,36937,769,0.72137,0
32375,-64,0.31953,38617,1680,0.82970,0
32247,-128,0.30951,39145,528,0.86375,0
32856,609,0.35719,39721,576,0.90089,0
33480,624,0.40604,40553,832,0.95454,0
34600,1120,0.49374,41258,705,1.00000,0
35176,576,0.53883,39913,-1345,0.91327,0
36232,1056,0.62152,39097,-816,0.86065,0
37033,801,0.68423,39049,-48,0.85756,0
38521,1488,0.80074,37465,-1584,0.75542,0
38873,352,0.82830,33608,-3857,0.50671,0
39161,288,0.85085,29719,-3889,0.25593,0
37417,-1744,0.71430,29319,-400,0.23014,0
34344,-3073,0.47369,30439,1120,0.30236,0
33144,-1200,0.37974,31271,832,0.35601,0
32631,-513,0.33957,31063,-208,0.34260,0
32583,-48,0.33581,30279,-784,0.29204,0
32391,-192,0.32078,30119,-160,0.28173,0
33544,1153,0.41106,30407,288,0.30030,0
33240,-304,0.38725,31111,704,0.34569,0
32439,-801,0.32454,31751,640,0.38696,0
31703,-736,0.26691,31847,96,0.39315,0
31303,-400,0.23559,33416,1569,0.49433,0
31223,-80,0.22933,33304,-112,0.48710,0
31991,768,0.28946,33864,560,0.52321,0
32519,528,0.33080,33656,-208,0.50980,0
32695,176,0.34458,33976,320,0.53044,0
32535,-160,0.33205,34280,304,0.55004,0
32247,-288,0.30951,34760,480,0.58099,0
31543,-704,0.25438,34552,-208,0.56758,0
31415,-128,0.24436,35336,784,0.61813,0
32359,944,0.31827,35464,128,0.62639,0
33224,865,0.38600,34056,-1408,0.53559,0
33976,752,0.44488,33144,-912,0.47679,0
33432,-544,0.40229,31719,-1425,0.38490,0
32407,-1025,0.32203,32487,768,0.43442,0
32776,369,0.35092,33896,1409,0.52528,0
33304,528,0.39226,35336,1440,0.61813,0
34456,1152,0.48246,36136,800,0.66972,0
36296,1840,0.62653,37033,897,0.72756,0
38073,1777,0.76566,36696,-337,0.70583,0
38345,272,0.78696,33608,-3088,0.50671,0
37753,-592,0.74060,30055,-3553,0.27760,0
37001,-752,0.68173,28054,-2001,0.14857,0
36328,-673,0.62903,27478,-576,0.11143,0
36040,-288,0.60648,27446,-32,0.10936,0
35592,-448,0.57141,29191,1745,0.22189,0
34136,-1456,0.45741,31895,2704,0.39625,0
31671,-2465,0.26441,33944,2049,0.52837,0
30823,-848,0.19801,36376,2432,0.68519,0
29927,-896,0.12786,37113,737,0.73272,0
30599,672,0.18047,37353,240,0.74819,0
31255,656,0.23184,38153,800,0.79978,0
31735,480,0.26942,39257,1104,0.87097,0
32055,320,0.29447,39241,-16,0.86994,0
32231,176,0.30825,38073,-1168,0.79462,0
32695,464,0.34458,36889,-1184,0.71827,0
33384,689,0.39853,35400,-1489,0.62226,0
34072,688,0.45240,33864,-1536,0.52321,0
33768,-304,0.42859,33368,-496,0.49123,0
33608,-160,0.41607,34456,1088,0.56139,0
33768,160,0.42859,35240,784,0.61194,0
33288,-480,0.39101,34584,-656,0.56964,0
32503,-785,0.32955,34952,368,0.59337,0
32151,-352,0.30199,34616,-336,0.57170,0
32968,817,0.36596,35880,1264,0.65321,0
32167,-801,0.30324,35896,16,0.65424,0
32936,769,0.36345,36104,208,0.66766,0
34760,1824,0.50626,35880,-224,0.65321,0
36792,2032,0.66536,35864,-16,0.65218,0
38809,2017,0.82329,33544,-2320,0.50258,0
39769,960,0.89845,31143,-2401,0.34776,0
40425,656,0.94981,29127,-2016,0.21776,0
39769,-656,0.89845,28406,-721,0.17127,0
38889,-880,0.82955,27718,-688,0.12690,0
36889,-2000,0.67296,29863,2145,0.26522,0
33848,-3041,0.43486,31495,1632,0.37045,0
31767,-2081,0.27192,32407,912,0.42926,0
31255,-512,0.23184,33592,1185,0.50567,0
31431,176,0.24562,35960,2368,0.65837,0
30919,-512,0.20553,36953,993,0.72240,0
30455,-464,0.16920,37113,160,0.73272,0
30663,208,0.18548,36969,-144,0.72343,0
30871,208,0.20177,37113,144,0.73272,0
31431,560,0.24562,36552,-561,0.69654,0
31639,208,0.26190,35400,-1152,0.62226,0
32391,752,0.32078,35384,-16,0.62123,0
32359,-32,0.31827,35368,-16,0.62020,0
32151,-208,0.30199,34296,-1072,0.55107,0
32295,144,0.31326,33560,-736,0.50361,0
31831,-464,0.27693,33336,-224,0.48917,0
31431,-400,0.24562,33624,288,0.50774,0
31079,-352,0.21806,33560,-64,0.50361,0
30135,-944,0.14414,33528,-32,0.50155,0
29847,-288,0.12159,34616,1088,0.57170,0
30903,1056,0.20427,35144,528,0.60575,0
33144,2241,0.37974,35000,-144,0.59647,0
34392,1248,0.47745,34920,-80,0.59131,0
35160,768,0.53758,35608,688,0.63567,0
36200,1040,0.61901,34872,-736,0.58821,0
36568,368,0.64782,32535,-2337,0.43752,0
37001,433,0.68173,31719,-816,0.38490,0
35432,-1569,0.55888,30999,-720,0.33847,0
33832,-1600,0.43360,31383,384,0.36323,0
33000,-832,0.36846,32423,1040,0.43029,0
33080,80,0.37473,33592,1169,0.50567,0
33416,336,0.40103,33944,352,0.52837,0
34792,1376,0.50877,34088,144,0.53766,0
34408,-384,0.47870,33992,-96,0.53147,0
36280,1872,0.62527,34360,368,0.55520,0
36744,464,0.66160,35176,816,0.60782,0
34472,-2272,0.48371,34536,-640,0.56655,0
34344,-128,0.47369,34952,416,0.59337,0
34248,-96,0.46618,33368,-1584,0.49123,0
32727,-1521,0.34709,32487,-881,0.43442,0
30231,-2496,0.15166,33496,1009,0.49948,0
29991,-240,0.13287,34984,1488,0.59543,0
30503,512,0.17296,36520,1536,0.69448,0
31351,848,0.23935,36808,288,0.71305,0
31975,624,0.28821,36824,16,0.71408,0
32103,128,0.29823,37209,385,0.73891,0
32231,128,0.30825,37881,672,0.78224,0
33000,769,0.36846,37641,-240,0.76677,0
33816,816,0.43235,37625,-16,0.76573,0
34968,1152,0.52255,38009,384,0.79050,0
35592,624,0.57141,36264,-1745,0.67797,0
36312,720,0.62778,34472,-1792,0.56242,0
37177,865,0.69551,32631,-1841,0.44371,0
37433,256,0.71555,31303,-1328,0.35807,0
37433,0,0.71555,30071,-1232,0.27863,0
37929,496,0.75438,29591,-480,0.24768,0
37865,-64,0.74937,31511,1920,0.37149,0
36248,-1617,0.62277,33624,2113,0.50774,0
33624,-2624,0.41732,36568,2944,0.69758,0
31671,-1953,0.26441,38601,2033,0.82867,0
32103,432,0.29823,38809,208,0.84208,0
34408,2305,0.47870,37993,-816,0.78946,0
35176,768,0.53883,37001,-992,0.72550,0
34072,-1104,0.45240,34968,-2033,0.59440,0
32968,-1104,0.36596,35016,48,0.59750,0
30807,-2161,0.19676,34536,-480,0.56655,0
31063,256,0.21680,35288,752,0.61504,0
31607,544,0.25940,36552,1264,0.69654,0
31223,-384,0.22933,34696,-1856,0.57686,0
32263,1040,0.31076,33224,-1472,0.48194,0
32167,-96,0.30324,31479,-1745,0.36942,0
32679,512,0.34333,29703,-1776,0.25490,0
33016,337,0.36971,30055,352,0.27760,0
33064,48,0.37347,31831,1776,0.39212,0
33256,192,0.38851,33736,1905,0.51496,0
33800,544,0.43110,35336,1600,0.61813,0
33720,-80,0.42484,35896,560,0.65424,0
34392,672,0.47745,36440,544,0.68932,0
34856,464,0.51378,35432,-1008,0.62432,0
34664,-192,0.49875,33528,-1904,0.50155,0
33560,-1104,0.41231,31959,-1569,0.40037,0
32567,-993,0.33456,32968,1009,0.46544,0
32183,-384,0.30449,33784,816,0.51806,0
33096,913,0.37598,33848,64,0.52218,0
34888,1792,0.51629,32792,-1056,0.45409,0
37257,2369,0.70177,32007,-785,0.40347,0
39513,2256,0.87841,30983,-1024,0.33744,0
41066,1553,1.00000,28070,-2913,0.14960,0
40905,-161,0.98739,26406,-1664,0.04230,0
38681,-2224,0.81326,25750,-656,0.00000,0
36104,-2577,0.61149,27334,1584,0.10214,0
33320,-2784,0.39352,30679,3345,0.31784,0
30951,-2369,0.20803,33960,3281,0.52940,0
29495,-1456,0.09403,36408,2448,0.68726,0
29271,-224,0.07650,37433,1025,0.75335,0
29799,528,0.11784,38761,1328,0.83899,0
30359,560,0.16168,38633,-128,0.83073,0
30807,448,0.19676,37737,-896,0.77296,0
31079,272,0.21806,37081,-656,0.73066,0
31047,-32,0.21555,35944,-1137,0.65734,0
31559,512,0.25564,34344,-1600,0.55417,0
31879,320,0.28069,34776,432,0.58202,0
32215,336,0.30700,35416,640,0.62329,0
32039,-176,0.29322,35416,0,0.62329,0
33176,1137,0.38224,35320,-96,0.61710,0
34184,1008,0.46117,34616,-704,0.57170,0
34776,592,0.50752,33624,-992,0.50774,0
34536,-240,0.48873,32952,-672,0.46441,0
34408,-128,0.47870,32183,-769,0.41482,0
34520,112,0.48747,32904,721,0.46131,0
34456,-64,0.48246,33704,800,0.51290,0
33928,-528,0.44112,34648,944,0.57377,0
33864,-64,0.43611,35672,1024,0.63980,0
33672,-192,0.42108,37705,2033,0.77089,0
33800,128,0.43110,38041,336,0.79256,0
34232,432,0.46492,36440,-1601,0.68932,0
34936,704,0.52004,35576,-864,0.63361,0
35512,576,0.56514,35288,-288,0.61504,0
35144,-368,0.53633,35048,-240,0.59956,0
34392,-752,0.47745,34552,-496,0.56758,0
33160,-1232,0.38099,32792,-1760,0.45409,0
32519,-641,0.33080,33384,592,0.49226,0
32103,-416,0.29823,34120,736,0.53972,0
32375,272,0.31953,35272,1152,0.61401,0
33256,881,0.38851,36184,912,0.67281,0
34136,880,0.45741,35608,-576,0.63567,0
33816,-320,0.43235,34056,-1552,0.53559,0
33736,-80,0.42609,32199,-1857,0.41585,0
33992,256,0.44613,30823,-1376,0.32712,0
34568,576,0.49123,30087,-736,0.27966,0
34504,-64,0.48622,29239,-848,0.22498,0
34552,48,0.48998,28871,-368,0.20125,0
34792,240,0.50877,28630,-241,0.18571,0
35368,576,0.55387,28887,257,0.20228,0
33848,-1520,0.43486,30135,1248,0.28276,0
33224,-624,0.38600,31239,1104,0.35395,0
32984,-240,0.36721,32455,1216,0.43236,0
33464,480,0.40479,34168,1713,0.54282,0
33176,-288,0.38224,35496,1328,0.62845,0
33208,32,0.38475,36616,1120,0.70067,0
33304,96,0.39226,37801,1185,0.77708,0
33544,240,0.41106,38569,768,0.82661,0
33944,400,0.44237,40777,2208,0.96898,0
34088,144,0.45365,41050,273,0.98659,0
33656,-432,0.41982,39673,-1377,0.89779,0
33944,288,0.44237,37577,-2096,0.76264,0
33400,-544,0.39978,35048,-2529,0.59956,0
34104,704,0.45490,34168,-880,0.54282,0
33800,0,0.56866,32663,0,0.50432,1
34120,320,0.67016,32407,-256,0.43291,1
33976,-144,0.62448,32535,128,0.46862,1
34040,64,0.64478,33112,577,0.62957,1
33720,-320,0.54329,32888,-224,0.56709,1
33800,80,0.56866,32968,80,0.58940,1
32984,-816,0.30986,32535,-433,0.46862,1
32792,-192,0.24897,32631,96,0.49540,1
32904,112,0.28449,33096,465,0.62510,1
32567,-337,0.17761,32968,-128,0.58940,1
32920,353,0.28957,32631,-337,0.49540,1
33080,160,0.34031,32471,-160,0.45077,1
33176,96,0.37076,32119,-352,0.35258,1
32792,-384,0.24897,32631,512,0.49540,1
33576,784,0.49762,33320,689,0.68759,1
33848,272,0.58389,33880,560,0.84379,1
34024,176,0.63971,33512,-368,0.74114,1
34232,208,0.70568,33544,32,0.75007,1
33976,-256,0.62448,33432,-112,0.71883,1
33336,-640,0.42150,33016,-416,0.60279,1
32792,-544,0.24897,32615,-401,0.49093,1
32920,128,0.28957,31847,-768,0.27671,1
33128,208,0.35553,32599,752,0.48647,1
33176,48,0.37076,32711,112,0.51771,1
33592,416,0.50270,32647,-64,0.49986,1
32792,-800,0.24897,32295,-352,0.40167,1
32840,48,0.26419,33144,849,0.63849,1
32776,-64,0.24389,32119,-1025,0.35258,1
32920,144,0.28957,32007,-112,0.32134,1
33192,272,0.37583,32247,240,0.38828,1
33256,64,0.39613,32327,80,0.41060,1
33192,-64,0.37583,32103,-224,0.34812,1
33240,48,0.39106,32215,112,0.37936,1
33160,-80,0.36568,32215,0,0.37936,1
32920,-240,0.28957,32375,160,0.42399,1
32856,-64,0.26927,32904,529,0.57155,1
33112,256,0.35046,32952,48,0.58494,1
32936,-176,0.29464,33272,320,0.67420,1
32824,-112,0.25912,33464,192,0.72775,1
32711,-113,0.22328,33288,-176,0.67866,1
32295,-416,0.09134,33080,-208,0.62064,1
32343,48,0.10657,33384,304,0.70544,1
32311,-32,0.09642,32695,-689,0.51325,1
32455,144,0.14209,33112,417,0.62957,1
32167,-288,0.05075,33112,0,0.62957,1
33032,865,0.32509,32840,-272,0.55370,1
33064,32,0.33524,32631,-209,0.49540,1
33224,160,0.38598,32487,-144,0.45523,1
33256,32,0.39613,32487,0,0.45523,1
33192,-64,0.37583,32231,-256,0.38382,1
32776,-416,0.24389,32183,-48,0.37043,1
33128,352,0.35553,32071,-112,0.33919,1
33160,32,0.36568,31991,-80,0.31688,1
33576,416,0.49762,32311,320,0.40614,1
33448,-128,0.45703,32247,-64,0.38828,1
33544,96,0.48747,32247,0,0.38828,1
32984,-560,0.30986,32471,224,0.45077,1
33448,464,0.45703,32439,-32,0.44184,1
32872,-576,0.27434,32199,-240,0.37490,1
33384,512,0.43673,32071,-128,0.33919,1
33288,-96,0.40628,32023,-48,0.32580,1
33320,32,0.41643,32023,0,0.32580,1
33512,192,0.47732,32215,192,0.37936,1
33256,-256,0.39613,32327,112,0.41060,1
33288,32,0.40628,32247,-80,0.38828,1
33112,-176,0.35046,32151,-96,0.36151,1
33064,-48,0.33524,32199,48,0.37490,1
33176,112,0.37076,32423,224,0.43738,1
33128,-48,0.35553,32471,48,0.45077,1
33176,48,0.37076,32455,-16,0.44630,1
33144,-32,0.36061,32311,-144,0.40614,1
33240,96,0.39106,32055,-256,0.33473,1
33240,0,0.39106,32535,480,0.46862,1
33096,-144,0.34539,32311,-224,0.40614,1
33032,-64,0.32509,32183,-128,0.37043,1
32695,-337,0.21820,32167,-16,0.36597,1
33208,513,0.38091,32071,-96,0.33919,1
34024,816,0.63971,32567,496,0.47755,1
33304,-720,0.41135,33064,497,0.61618,1
33160,-144,0.36568,32631,-433,0.49540,1
33480,320,0.46717,32711,80,0.51771,1
33448,-32,0.45703,32167,-544,0.36597,1
33416,-32,0.44688,32631,464,0.49540,1
33816,400,0.57374,32984,353,0.59386,1
33720,-96,0.54329,33480,496,0.73222,1
33416,-304,0.44688,33640,160,0.77685,1
32920,-496,0.28957,33240,-400,0.66527,1
33640,720,0.51792,33400,160,0.70990,1
32631,-1009,0.19791,33416,16,0.71437,1
32679,48,0.21313,33128,-288,0.63403,1
32007,-672,0.00000,33112,-16,0.62957,1
33048,1041,0.33016,32808,-304,0.54477,1
33592,544,0.50270,32904,96,0.57155,1
33320,-272,0.41643,32567,-337,0.47755,1
33336,16,0.42150,32295,-272,0.40167,1
33544,208,0.48747,32423,128,0.43738,1
33480,-64,0.46717,32215,-208,0.37936,1
33432,-48,0.45195,32279,64,0.39721,1
33400,-32,0.44180,32327,48,0.41060,1
33352,-48,0.42658,32279,-48,0.39721,1
33032,-320,0.32509,32119,-160,0.35258,1
33176,144,0.37076,31991,-128,0.31688,1
32840,-336,0.26419,31751,-240,0.24993,1
33336,496,0.42150,31895,144,0.29010,1
33288,-48,0.40628,31735,-160,0.24547,1
33528,240,0.48240,31783,48,0.25886,1
33240,-288,0.39106,31383,-400,0.14728,1
33000,-240,0.31494,30855,-528,0.00000,1
33544,544,0.48747,33080,2225,0.62064,1
33688,144,0.53314,32519,-561,0.46416,1
33416,-272,0.44688,31623,-896,0.21423,1
33256,-160,0.39613,32872,1249,0.56262,1
33224,-32,0.38598,33016,144,0.60279,1
33224,0,0.38598,33352,336,0.69651,1
33032,-192,0.32509,32968,-384,0.58940,1
33048,16,0.33016,32904,-64,0.57155,1
33368,320,0.43165,32808,-96,0.54477,1
33160,-208,0.36568,32631,-177,0.49540,1
33256,96,0.39613,33304,673,0.68312,1
33272,16,0.40121,32407,-897,0.43291,1
33064,-208,0.33524,32039,-368,0.33026,1
33416,352,0.44688,32519,480,0.46416,1
33368,-48,0.43165,33000,481,0.59833,1
33288,-80,0.40628,32872,-128,0.56262,1
33240,-48,0.39106,32487,-385,0.45523,1
33256,16,0.39613,32968,481,0.58940,1
32551,-705,0.17253,33032,64,0.60725,1
33640,1089,0.51792,33176,144,0.64742,1
33832,192,0.57881,33368,192,0.70098,1
34184,352,0.69045,33288,-80,0.67866,1
33752,-432,0.55344,32968,-320,0.58940,1
33544,-208,0.48747,32968,0,0.58940,1
33256,-288,0.39613,32936,-32,0.58047,1
33384,128,0.43673,33352,416,0.69651,1
33544,160,0.48747,33496,144,0.73668,1
33512,-32,0.47732,33352,-144,0.69651,1
33624,112,0.51284,33208,-144,0.65635,1
33800,176,0.56866,32888,-320,0.56709,1
33544,-256,0.48747,32904,16,0.57155,1
33480,-64,0.46717,33064,160,0.61618,1
33400,-80,0.44180,33080,16,0.62064,1
33448,48,0.45703,33080,0,0.62064,1
33576,128,0.49762,33176,96,0.64742,1
33512,-64,0.47732,33016,-160,0.60279,1
33400,-112,0.44180,32984,-32,0.59386,1
33224,-176,0.38598,32695,-289,0.51325,1
33112,-112,0.35046,32904,209,0.57155,1
33048,-64,0.33016,33112,208,0.62957,1
33128,80,0.35553,32936,-176,0.58047,1
33208,80,0.38091,33096,160,0.62510,1
33304,96,0.41135,33016,-80,0.60279,1
33032,-272,0.32509,32840,-176,0.55370,1
33288,256,0.40628,32792,-48,0.54031,1
33320,32,0.41643,33080,288,0.62064,1
32567,-753,0.17761,32615,-465,0.49093,1
32952,385,0.29971,32583,-32,0.48201,1
33160,208,0.36568,32824,241,0.54923,1
33432,272,0.45195,32840,16,0.55370,1
33592,160,0.50270,32888,48,0.56709,1
33672,80,0.52807,33304,416,0.68312,1
34120,448,0.67016,32695,-609,0.51325,1
34248,128,0.71075,33016,321,0.60279,1
34312,64,0.73105,32808,-208,0.54477,1
33944,-368,0.61434,33192,384,0.65188,1
34072,128,0.65493,33672,480,0.78577,1
34120,48,0.67016,34328,656,0.96876,1
34136,16,0.67523,33896,-432,0.84826,1
33944,-192,0.61434,33576,-320,0.75900,1
33400,-544,0.44180,33144,-432,0.63849,1
34056,656,0.64986,33128,-16,0.63403,1
33992,-64,0.62956,32471,-657,0.45077,1
33960,-32,0.61941,32471,0,0.45077,1
34104,144,0.66508,32471,0,0.45077,1
34520,416,0.79702,32872,401,0.56262,1
34152,-368,0.68030,32840,-32,0.55370,1
34536,384,0.80209,32808,-32,0.54477,1
33784,-752,0.56359,32984,176,0.59386,1
33496,-288,0.47225,33112,128,0.62957,1
33288,-208,0.40628,33096,-16,0.62510,1
33112,-176,0.35046,32840,-256,0.55370,1
33128,16,0.35553,32647,-193,0.49986,1
33048,-80,0.33016,32888,241,0.56709,1
32936,-112,0.29464,33688,800,0.79024,1
33032,96,0.32509,33448,-240,0.72329,1
32952,-80,0.29971,33240,-208,0.66527,1
32856,-96,0.26927,32599,-641,0.48647,1
32792,-64,0.24897,32407,-192,0.43291,1
32808,16,0.25404,32439,32,0.44184,1
32984,176,0.30986,32663,224,0.50432,1
33272,288,0.40121,32599,-64,0.48647,1
33624,352,0.51284,33128,529,0.63403,1
33096,-528,0.34539,32663,-465,0.50432,1
32439,-657,0.13701,32567,-96,0.47755,1
33048,609,0.33016,33064,497,0.61618,1
33224,176,0.38598,33752,688,0.80809,1
33208,-16,0.38091,32856,-896,0.55816,1
33192,-16,0.37583,32888,32,0.56709,1
33400,208,0.44180,32679,-209,0.50879,1
33656,256,0.52299,33464,785,0.72775,1
33480,-176,0.46717,33528,64,0.74561,1
33560,80,0.49255,33688,160,0.79024,1
33128,-432,0.35553,33960,272,0.86611,1
33528,400,0.48240,34040,80,0.88842,1
33304,-224,0.41135,34056,16,0.89289,1
33064,-240,0.33524,34248,192,0.94644,1
33112,48,0.35046,34120,-128,0.91074,1
33256,144,0.39613,33352,-768,0.69651,1
33288,32,0.40628,33448,96,0.72329,1
33128,-160,0.35553,33032,-416,0.60725,1
33192,64,0.37583,33144,112,0.63849,1
33208,16,0.38091,32936,-208,0.58047,1
33464,256,0.46210,33176,240,0.64742,1
33512,48,0.47732,33016,-160,0.60279,1
33336,-176,0.42150,32968,-48,0.58940,1
33256,-80,0.39613,33128,160,0.63403,1
33176,-80,0.37076,33192,64,0.65188,1
33304,128,0.41135,33352,160,0.69651,1
33384,80,0.43673,33192,-160,0.65188,1
33624,240,0.51284,33064,-128,0.61618,1
33480,-144,0.46717,32375,-689,0.42399,1
33192,-288,0.37583,32215,-160,0.37936,1
33416,224,0.44688,32487,272,0.45523,1
33736,320,0.54837,32663,176,0.50432,1
33336,-400,0.42150,33800,1137,0.82148,1
33448,112,0.45703,33128,-672,0.63403,1
33272,-176,0.40121,33304,176,0.68312,1
33304,32,0.41135,33416,112,0.71437,1
33208,-96,0.38091,33128,-288,0.63403,1
33176,-32,0.37076,32952,-176,0.58494,1
33320,144,0.41643,33016,64,0.60279,1
33624,304,0.51284,33000,-16,0.59833,1
33896,272,0.59911,33304,304,0.68312,1
33800,-96,0.56866,33304,0,0.68312,1
33464,-336,0.46210,33656,352,0.78131,1
33144,-320,0.36061,33480,-176,0.73222,1
32856,-288,0.26927,34168,688,0.92413,1
32439,-417,0.13701,33032,-1136,0.60725,1
32183,-256,0.05582,32952,-80,0.58494,1
32599,416,0.18776,32968,16,0.58940,1
32904,305,0.28449,32984,16,0.59386,1
33000,96,0.31494,32808,-176,0.54477,1
33080,80,0.34031,32952,144,0.58494,1
32904,-176,0.28449,32776,-176,0.53584,1
32824,-80,0.25912,32936,160,0.58047,1
32984,160,0.30986,32872,-64,0.56262,1
33080,96,0.34031,32888,16,0.56709,1
33272,192,0.40121,32968,80,0.58940,1
33272,0,0.40121,33240,272,0.66527,1
33448,176,0.45703,33528,288,0.74561,1
33656,208,0.52299,33544,16,0.75007,1
33768,112,0.55852,34040,496,0.88842,1
33624,-144,0.51284,33272,-768,0.67420,1
33432,-192,0.45195,32936,-336,0.58047,1
33352,-80,0.42658,32920,-16,0.57601,1
33288,-64,0.40628,32824,-96,0.54923,1
32792,-496,0.24897,32776,-48,0.53584,1
33480,688,0.46717,32647,-129,0.49986,1
33576,96,0.49762,32663,16,0.50432,1
33496,-80,0.47225,32695,32,0.51325,1
33720,224,0.54329,32952,257,0.58494,1
33736,16,0.54837,32920,-32,0.57601,1
33368,-368,0.43165,33480,560,0.73222,1
33368,0,0.43165,32375,-1105,0.42399,1
33336,-32,0.42150,32583,208,0.48201,1
33208,-128,0.38091,33016,433,0.60279,1
33112,-96,0.35046,33240,224,0.66527,1
33256,144,0.39613,33240,0,0.66527,1
33208,-48,0.38091,33144,-96,0.63849,1
33336,128,0.42150,33256,112,0.66974,1
33384,48,0.43673,33208,-48,0.65635,1
33432,48,0.45195,32920,-288,0.57601,1
33352,-80,0.42658,32519,-401,0.46416,1
33320,-32,0.41643,32295,-224,0.40167,1
33368,48,0.43165,32952,657,0.58494,1
33272,-96,0.40121,32551,-401,0.47308,1
33032,-240,0.32509,31943,-608,0.30349,1
33096,64,0.34539,31895,-48,0.29010,1
33160,64,0.36568,32215,320,0.37936,1
33112,-48,0.35046,32263,48,0.39275,1
33432,320,0.45195,32231,-32,0.38382,1
33144,-288,0.36061,32423,192,0.43738,1
32487,-657,0.15224,32824,401,0.54923,1
33240,753,0.39106,33048,224,0.61172,1
33368,128,0.43165,33224,176,0.66081,1
33480,112,0.46717,33304,80,0.68312,1
33880,400,0.59404,33736,432,0.80363,1
33944,64,0.61434,33752,16,0.80809,1
33944,0,0.61434,33672,-80,0.78577,1
33608,-336,0.50777,33592,-80,0.76346,1
33880,272,0.59404,33000,-592,0.59833,1
33960,80,0.61941,32679,-321,0.50879,1
33640,-320,0.51792,32647,-32,0.49986,1
33256,-384,0.39613,32663,16,0.50432,1
32968,-288,0.30479,32631,-32,0.49540,1
32856,-112,0.26927,32824,193,0.54923,1
33016,160,0.32001,32583,-241,0.48201,1
33064,48,0.33524,33144,561,0.63849,1
32920,-144,0.28957,32311,-833,0.40614,1
32872,-48,0.27434,32087,-224,0.34365,1
33000,128,0.31494,31591,-496,0.20530,1
33064,64,0.33524,31207,-384,0.09819,1
33064,0,0.33524,32039,832,0.33026,1
33096,32,0.34539,32039,0,0.33026,1
33432,336,0.45195,32615,576,0.49093,1
33384,-48,0.43673,32792,177,0.54031,1
33192,-192,0.37583,32647,-145,0.49986,1
32952,-240,0.29971,32647,0,0.49986,1
33144,192,0.36061,32503,-144,0.45969,1
33256,112,0.39613,32567,64,0.47755,1
33160,-96,0.36568,32583,16,0.48201,1
33800,640,0.56866,33224,641,0.66081,1
33320,-480,0.41643,33896,672,0.84826,1
33400,80,0.44180,33512,-384,0.74114,1
33448,48,0.45703,32631,-881,0.49540,1
33416,-32,0.44688,32727,96,0.52218,1
32840,-576,0.26419,32727,0,0.52218,1
33128,288,0.35553,32888,161,0.56709,1
33016,-112,0.32001,33352,464,0.69651,1
32487,-529,0.15224,33096,-256,0.62510,1
32279,-208,0.08627,33016,-80,0.60279,1
32615,336,0.19283,33480,464,0.73222,1
33064,449,0.33524,33320,-160,0.68759,1
33384,320,0.43673,33272,-48,0.67420,1
33384,0,0.43673,33464,192,0.72775,1
33272,-112,0.40121,33480,16,0.73222,1
33192,-80,0.37583,33336,-144,0.69205,1
33272,80,0.40121,33352,16,0.69651,1
33304,32,0.41135,33592,240,0.76346,1
33320,16,0.41643,33816,224,0.82594,1
33272,-48,0.40121,33784,-32,0.81702,1
33304,32,0.41135,33384,-400,0.70544,1
33688,384,0.53314,33240,-144,0.66527,1
33528,-160,0.48240,33240,0,0.66527,1
33608,80,0.50777,33384,144,0.70544,1
33528,-80,0.48240,32808,-576,0.54477,1
33400,-128,0.44180,32599,-209,0.48647,1
33176,-224,0.37076,32487,-112,0.45523,1
33208,32,0.38091,32343,-144,0.41506,1
33304,96,0.41135,32455,112,0.44630,1
32888,-416,0.27942,32904,449,0.57155,1
33240,352,0.39106,31943,-961,0.30349,1
33112,-128,0.35046,32039,96,0.33026,1
32904,-208,0.28449,32167,128,0.36597,1
33240,336,0.39106,32727,560,0.52218,1
33032,-208,0.32509,32551,-176,0.47308,1
33208,176,0.38091,32920,369,0.57601,1
33256,48,0.39613,32792,-128,0.54031,1
33352,96,0.42658,32663,-129,0.50432,1
33224,-128,0.38598,32471,-192,0.45077,1
33048,-176,0.33016,32359,-112,0.41953,1
32263,-785,0.08119,32263,-96,0.39275,1
33064,801,0.33524,32407,144,0.43291,1
32872,-192,0.27434,32375,-32,0.42399,1
32439,-433,0.13701,32583,208,0.48201,1
32840,401,0.26419,32359,-224,0.41953,1
33384,544,0.43673,32183,-176,0.37043,1
33576,192,0.49762,32471,288,0.45077,1
33256,-320,0.39613,32311,-160,0.40614,1
33000,-256,0.31494,32599,288,0.48647,1
33784,784,0.56359,32263,-336,0.39275,1
33176,-608,0.37076,32776,513,0.53584,1
33192,16,0.37583,32455,-321,0.44630,1
33880,688,0.59404,32567,112,0.47755,1
33416,-464,0.44688,32920,353,0.57601,1
33336,-80,0.42150,32615,-305,0.49093,1
33368,32,0.43165,32695,80,0.51325,1
33272,-96,0.40121,32920,225,0.57601,1
33416,144,0.44688,33144,224,0.63849,1
33640,224,0.51792,33128,-16,0.63403,1
33768,128,0.55852,33032,-96,0.60725,1
33496,-272,0.47225,32952,-80,0.58494,1
33528,32,0.48240,32856,-96,0.55816,1
33176,-352,0.37076,32872,16,0.56262,1
33160,-16,0.36568,33336,464,0.69205,1
32872,-288,0.27434,33064,-272,0.61618,1
32776,-96,0.24389,32856,-208,0.55816,1
32856,80,0.26927,32615,-241,0.49093,1
33016,160,0.32001,32551,-64,0.47308,1
33608,592,0.50777,32792,241,0.54031,1
33704,96,0.53822,32375,-417,0.42399,1
33448,-256,0.45703,32183,-192,0.37043,1
33432,-16,0.45195,32039,-144,0.33026,1
33368,-64,0.43165,32071,32,0.33919,1
33544,176,0.48747,32567,496,0.47755,1
33464,-80,0.46210,32583,16,0.48201,1
33304,-160,0.41135,33016,433,0.60279,1
33416,112,0.44688,32952,-64,0.58494,1
33544,128,0.48747,32727,-225,0.52218,1
33448,-96,0.45703,32535,-192,0.46862,1
33208,-240,0.38091,32792,257,0.54031,1
33384,176,0.43673,32808,16,0.54477,1
33224,-160,0.38598,32808,0,0.54477,1
33224,0,0.38598,32615,-193,0.49093,1
33080,-144,0.34031,32167,-448,0.36597,1
33384,304,0.43673,32888,721,0.56709,1
33528,144,0.48240,33112,224,0.62957,1
33640,112,0.51792,33240,128,0.66527,1
33384,-256,0.43673,33208,-32,0.65635,1
33368,-16,0.43165,33192,-16,0.65188,1
32984,-384,0.30986,32711,-481,0.51771,1
32824,-160,0.25912,32487,-224,0.45523,1
32551,-273,0.17253,32135,-352,0.35704,1
32952,401,0.29971,33128,993,0.63403,1
33304,352,0.41135,32039,-1089,0.33026,1
33208,-96,0.38091,32711,672,0.51771,1
33880,672,0.59404,33128,417,0.63403,1
33336,-544,0.42150,33336,208,0.69205,1
32808,-528,0.25404,33416,80,0.71437,1
33176,368,0.37076,33272,-144,0.67420,1
33080,-96,0.34031,32984,-288,0.59386,1
33112,32,0.35046,32888,-96,0.56709,1
33208,96,0.38091,32808,-80,0.54477,1
33304,96,0.41135,32952,144,0.58494,1
33272,-32,0.40121,33016,64,0.60279,1
32776,-496,0.24389,32776,-240,0.53584,1
33384,608,0.43673,32535,-241,0.46862,1
33448,64,0.45703,32455,-80,0.44630,1
33304,-144,0.41135,32391,-64,0.42845,1
33176,-128,0.37076,32359,-32,0.41953,1
33512,336,0.47732,32471,112,0.45077,1
33560,48,0.49255,32471,0,0.45077,1
33624,64,0.51284,32295,-176,0.40167,1
33480,-144,0.46717,31911,-384,0.29456,1
33928,448,0.60926,32583,672,0.48201,1
33624,-304,0.51284,32663,80,0.50432,1
33112,-512,0.35046,32359,-304,0.41953,1
33208,96,0.38091,32343,-16,0.41506,1
33224,16,0.38598,32535,192,0.46862,1
33432,208,0.45195,32695,160,0.51325,1
33256,-176,0.39613,32792,97,0.54031,1
33544,288,0.48747,32856,64,0.55816,1
33624,80,0.51284,33544,688,0.75007,1
33384,-240,0.43673,33672,128,0.78577,1
33704,320,0.53822,33816,144,0.82594,1
33160,-544,0.36568,33368,-448,0.70098,1
33176,16,0.37076,33048,-320,0.61172,1
33368,192,0.43165,32936,-112,0.58047,1
33944,576,0.61434,33640,704,0.77685,1
33896,-48,0.59911,33304,-336,0.68312,1
33400,-496,0.44180,33352,48,0.69651,1
33496,96,0.47225,33560,208,0.75453,1
33288,-208,0.40628,33000,-560,0.59833,1
33384,96,0.43673,33304,304,0.68312,1
33544,160,0.48747,34104,800,0.90628,1
33592,48,0.50270,33848,-256,0.83487,1
33544,-48,0.48747,33608,-240,0.76792,1
33496,-48,0.47225,33384,-224,0.70544,1
33656,160,0.52299,32071,-1313,0.33919,1
33896,240,0.59911,33080,1009,0.62064,1
34024,128,0.63971,33016,-64,0.60279,1
33784,-240,0.56359,32711,-305,0.51771,1
33528,-256,0.48240,32663,-48,0.50432,1
34072,544,0.65493,32263,-400,0.39275,1
33208,-864,0.38091,32776,513,0.53584,1
32856,-352,0.26927,32423,-353,0.43738,1
32615,-241,0.19283,32247,-176,0.38828,1
33048,433,0.33016,31783,-464,0.25886,1
33048,0,0.33016,32167,384,0.36597,1
33128,80,0.35553,32231,64,0.38382,1
33176,48,0.37076,32343,112,0.41506,1
33352,176,0.42658,32135,-208,0.35704,1
33288,-64,0.40628,32151,16,0.36151,1
33288,0,0.40628,32071,-80,0.33919,1
33608,320,0.50777,32904,833,0.57155,1
33656,48,0.52299,33064,160,0.61618,1
33496,-160,0.47225,33240,176,0.66527,1
33720,224,0.54329,32471,-769,0.45077,1
33784,64,0.56359,33288,817,0.67866,1
33528,-256,0.48240,32792,-496,0.54031,1
33912,384,0.60419,33192,400,0.65188,1
33608,-304,0.50777,33912,720,0.85272,1
33960,352,0.61941,33560,-352,0.75453,1
34232,272,0.70568,33864,304,0.83933,1
33784,-448,0.56359,33128,-736,0.63403,1
33672,-112,0.52807,32872,-256,0.56262,1
33352,-320,0.42658,32663,-209,0.50432,1
33512,160,0.47732,32183,-480,0.37043,1
33576,64,0.49762,32295,112,0.40167,1
33592,16,0.50270,32343,48,0.41506,1
32727,-865,0.22835,32359,16,0.41953,1
33608,881,0.50777,32888,529,0.56709,1
33480,-128,0.46717,32856,-32,0.55816,1
33832,352,0.57881,33480,624,0.73222,1
34008,176,0.63463,33128,-352,0.63403,1
34168,160,0.68538,33512,384,0.74114,1
35160,992,1.00000,33704,192,0.79470,1
34328,-832,0.73612,33864,160,0.83933,1
33992,-336,0.62956,34232,368,0.94198,1
34024,32,0.63971,34440,208,1.00000,1
33848,-176,0.58389,34056,-384,0.89289,1
33336,-512,0.42150,33512,-544,0.74114,1
32952,-384,0.29971,33016,-496,0.60279,1
32727,-225,0.22835,33096,80,0.62510,1
33096,369,0.34539,33416,320,0.71437,1
33352,256,0.42658,33112,-304,0.62957,1
33688,336,0.53314,33000,-112,0.59833,1
33240,-448,0.39106,32391,-609,0.42845,1
33080,-160,0.34031,32263,-128,0.39275,1
33112,32,0.35046,31623,-640,0.21423,1
33112,0,0.35046,32359,736,0.41953,1
32952,0,0.34657,32263,0,0.50903,0
32487,-465,0.31781,32311,48,0.51205,0
32231,-256,0.30197,31703,-608,0.47390,0
32776,545,0.33568,31511,-192,0.46186,0
32792,16,0.33667,31847,336,0.48294,0
31831,-961,0.27722,32423,576,0.51907,0
31639,-192,0.26534,33864,1441,0.60947,0
31863,224,0.27920,34968,1104,0.67873,0
31367,-496,0.24852,35208,240,0.69379,0
31175,-192,0.23664,34968,-240,0.67873,0
31431,256,0.25247,34920,-48,0.67572,0
31863,432,0.27920,34824,-96,0.66970,0
32055,192,0.29108,34488,-336,0.64862,0
32183,128,0.29900,33016,-1472,0.55627,0
32599,416,0.32473,33928,912,0.61349,0
33336,737,0.37033,35080,1152,0.68576,0
33032,-304,0.35152,35720,640,0.72591,0
32695,-337,0.33067,36168,448,0.75402,0
32840,145,0.33964,35640,-528,0.72089,0
33496,656,0.38023,35704,64,0.72491,0
34344,848,0.43269,34200,-1504,0.63055,0
34600,256,0.44853,33048,-1152,0.55828,0
34504,-96,0.44259,31047,-2001,0.43275,0
34904,400,0.46733,30071,-976,0.37152,0
35352,448,0.49505,29495,-576,0.33538,0
35736,384,0.51881,28422,-1073,0.26807,0
36232,496,0.54949,29383,961,0.32836,0
36488,256,0.56533,30983,1600,0.42873,0
36632,144,0.57424,33560,2577,0.59040,0
37369,737,0.61983,34216,656,0.63156,0
36088,-1281,0.54058,33496,-720,0.58639,0
34136,-1952,0.41982,33496,0,0.58639,0
33512,-624,0.38122,34920,1424,0.67572,0
34632,1120,0.45051,35864,944,0.73494,0
35000,368,0.47327,35432,-432,0.70784,0
34792,-208,0.46041,33976,-1456,0.61650,0
35768,976,0.52079,34056,80,0.62152,0
35928,160,0.53069,34040,-16,0.62051,0
35992,64,0.53464,34472,432,0.64762,0
34920,-1072,0.46832,33384,-1088,0.57936,0
33352,-1568,0.37132,33528,144,0.58839,0
32023,-1329,0.28910,34216,688,0.63156,0
31271,-752,0.24258,35672,1456,0.72290,0
30295,-976,0.18220,35976,304,0.74197,0
30375,80,0.18714,36616,640,0.78212,0
30455,80,0.19209,35656,-960,0.72189,0
30535,80,0.19704,34808,-848,0.66870,0
31175,640,0.23664,34712,-96,0.66267,0
32103,928,0.29405,34168,-544,0.62854,0
33736,1633,0.39508,34008,-160,0.61851,0
33288,-448,0.36736,33736,-272,0.60144,0
33096,-192,0.35548,33448,-288,0.58338,0
32808,-288,0.33766,33368,-80,0.57836,0
32727,-81,0.33265,33400,32,0.58036,0
32135,-592,0.29603,33544,144,0.58940,0
33240,1105,0.36439,34024,480,0.61951,0
34200,960,0.42378,33912,-112,0.61248,0
35144,944,0.48218,34984,1072,0.67974,0
35640,496,0.51287,35544,560,0.71487,0
35608,-32,0.51089,37785,2241,0.85546,0
34920,-688,0.46832,36873,-912,0.79824,0
34696,-224,0.45447,36488,-385,0.77409,0
34216,-480,0.42477,36776,288,0.79216,0
34696,480,0.45447,37193,417,0.81832,0
34328,-368,0.43170,36344,-849,0.76506,0
34712,384,0.45546,34648,-1696,0.65866,0
33928,-784,0.40695,34072,-576,0.62252,0
33816,-112,0.40002,34280,208,0.63557,0
33032,-784,0.35152,32471,-1809,0.52208,0
33176,144,0.36043,31287,-1184,0.44780,0
34376,1200,0.43467,29863,-1424,0.35847,0
35000,624,0.47327,27814,-2049,0.22992,0
35976,976,0.53366,26838,-976,0.16870,0
36873,897,0.58915,26438,-400,0.14360,0
37481,608,0.62676,28054,1616,0.24498,0
36472,-1009,0.56434,29799,1745,0.35445,0
34840,-1632,0.46338,31975,2176,0.49097,0
33224,-1616,0.36340,33592,1617,0.59241,0
31799,-1425,0.27524,34920,1328,0.67572,0
31591,-208,0.26237,36040,1120,0.74598,0
31511,-80,0.25742,37065,1025,0.81029,0
33176,1665,0.36043,35864,-1201,0.73494,0
33544,368,0.38320,35832,-32,0.73294,0
33576,32,0.38518,34808,-1024,0.66870,0
33560,-16,0.38419,35368,560,0.70383,0
33192,-368,0.36142,36488,1120,0.77409,0
33160,-32,0.35944,36937,449,0.80226,0
33112,-48,0.35647,35864,-1073,0.73494,0
33752,640,0.39607,35048,-816,0.68375,0
34504,752,0.44259,34936,-112,0.67673,0
34648,144,0.45150,35128,192,0.68877,0
35256,608,0.48911,35560,432,0.71587,0
35144,-112,0.48218,36184,624,0.75502,0
34632,-512,0.45051,35816,-368,0.73193,0
35976,1344,0.53366,34984,-832,0.67974,0
36120,144,0.54256,33576,-1408,0.59141,0
35992,-128,0.53464,32904,-672,0.54925,0
35320,-672,0.49307,32679,-225,0.53513,0
34936,-384,0.46931,33416,737,0.58137,0
34616,-320,0.44952,33992,576,0.61750,0
34968,352,0.47129,34200,208,0.63055,0
33160,-1808,0.35944,35224,1024,0.69479,0
31607,-1553,0.26336,36232,1008,0.75803,0
31511,-96,0.25742,37113,881,0.81330,0
31239,-272,0.24060,36696,-417,0.78714,0
31175,-64,0.23664,36504,-192,0.77509,0
31463,288,0.25445,37545,1041,0.84040,0
31671,208,0.26732,37993,448,0.86851,0
32039,368,0.29009,37337,-656,0.82735,0
32519,480,0.31978,35688,-1649,0.72390,0
32936,417,0.34558,34120,-1568,0.62553,0
33240,304,0.36439,33176,-944,0.56631,0
33496,256,0.38023,32920,-256,0.55025,0
33976,480,0.40992,33048,128,0.55828,0
33976,0,0.40992,33160,112,0.56531,0
34520,544,0.44358,33272,112,0.57233,0
34280,-240,0.42873,33016,-256,0.55627,0
34360,80,0.43368,33256,240,0.57133,0
35240,880,0.48812,33384,128,0.57936,0
35304,64,0.49208,34136,752,0.62654,0
34456,-848,0.43962,32824,-1312,0.54423,0
33720,-736,0.39409,32551,-273,0.52710,0
33320,-400,0.36934,33112,561,0.56230,0
33336,16,0.37033,33016,-96,0.55627,0
34136,800,0.41982,32327,-689,0.51305,0
34600,464,0.44853,32407,80,0.51807,0
34760,160,0.45843,33112,705,0.56230,0
34856,96,0.46437,32952,-160,0.55226,0
34904,48,0.46733,31959,-993,0.48996,0
35464,560,0.50198,31783,-176,0.47892,0
35752,288,0.51980,31847,64,0.48294,0
35576,-176,0.50891,31303,-544,0.44881,0
35448,-128,0.50099,30647,-656,0.40765,0
36488,1040,0.56533,31559,912,0.46487,0
36744,256,0.58117,32423,864,0.51907,0
36488,-256,0.56533,33688,1265,0.59843,0
36184,-304,0.54652,34856,1168,0.67171,0
34552,-1632,0.44556,36856,2000,0.79718,0
32167,-2385,0.29801,38393,1537,0.89360,0
30727,-1440,0.20892,38249,-144,0.88457,0
31111,384,0.23268,37385,-864,0.83036,0
31239,128,0.24060,36200,-1185,0.75602,0
31655,416,0.26633,35016,-1184,0.68174,0
32231,576,0.30197,34920,-96,0.67572,0
32519,288,0.31978,34184,-736,0.62955,0
32327,-192,0.30791,33224,-960,0.56932,0
32087,-240,0.29306,33112,-112,0.56230,0
32519,432,0.31978,33928,816,0.61349,0
33576,1057,0.38518,33176,-752,0.56631,0
33864,288,0.40299,31911,-1265,0.48695,0
33576,-288,0.38518,30423,-1488,0.39360,0
34328,752,0.43170,30199,-224,0.37955,0
34568,240,0.44655,30903,704,0.42371,0
33992,-576,0.41091,32343,1440,0.51405,0
32567,-1425,0.32275,33592,1249,0.59241,0
31287,-1280,0.24357,34568,976,0.65364,0
31447,160,0.25346,35544,976,0.71487,0
32711,1264,0.33166,38233,2689,0.88356,0
33784,1073,0.39805,39673,1440,0.97390,0
34328,544,0.43170,39993,320,0.99398,0
34728,400,0.45645,39993,0,0.99398,0
35320,592,0.49307,39497,-496,0.96286,0
35928,608,0.53069,38777,-720,0.91769,0
36136,208,0.54355,37897,-880,0.86248,0
36760,624,0.58216,35976,-1921,0.74197,0
35800,-960,0.52277,33368,-2608,0.57836,0
34312,-1488,0.43071,31047,-2321,0.43275,0
34264,-48,0.42774,30727,-320,0.41267,0
34168,-96,0.42180,31271,544,0.44680,0
33560,-608,0.38419,32808,1537,0.54322,0
32776,-784,0.33568,34760,1952,0.66568,0
32439,-337,0.31484,35320,560,0.70082,0
32952,513,0.34657,35560,240,0.71587,0
33080,128,0.35449,34968,-592,0.67873,0
32663,-417,0.32869,34264,-704,0.63457,0
32215,-448,0.30098,33704,-560,0.59944,0
32199,-16,0.29999,33496,-208,0.58639,0
32583,384,0.32374,33832,336,0.60747,0
33464,881,0.37825,33352,-480,0.57735,0
34184,720,0.42279,33480,128,0.58538,0
34168,-16,0.42180,33112,-368,0.56230,0
34440,272,0.43863,33592,480,0.59241,0
34632,192,0.45051,33608,16,0.59341,0
34712,80,0.45546,34376,768,0.64159,0
34648,-64,0.45150,34888,512,0.67371,0
35048,400,0.47624,35128,240,0.68877,0
35032,-16,0.47525,34664,-464,0.65966,0
35400,368,0.49802,35288,624,0.69881,0
34920,-480,0.46832,34568,-720,0.65364,0
33992,-928,0.41091,33464,-1104,0.58438,0
33192,-800,0.36142,32679,-785,0.53513,0
33016,-176,0.35053,32295,-384,0.51104,0
33560,544,0.38419,32455,160,0.52108,0
34200,640,0.42378,31767,-688,0.47792,0
35192,992,0.48515,30967,-800,0.42773,0
35864,672,0.52673,30615,-352,0.40565,0
36616,752,0.57325,30103,-512,0.37353,0
37497,881,0.62775,29335,-768,0.32535,0
38745,1248,0.70496,28951,-384,0.30125,0
39113,368,0.72773,29575,624,0.34040,0
37337,-1776,0.61785,30903,1328,0.42371,0
33576,-3761,0.38518,32984,2081,0.55427,0
30935,-2641,0.22179,35624,2640,0.71989,0
30295,-640,0.18220,36776,1152,0.79216,0
30919,624,0.22080,37433,657,0.83338,0
31591,672,0.26237,36824,-609,0.79517,0
31879,288,0.28019,35224,-1600,0.69479,0
32151,272,0.29702,34488,-736,0.64862,0
32039,-112,0.29009,33912,-576,0.61248,0
30599,-1440,0.20100,34552,640,0.65263,0
31335,736,0.24654,33368,-1184,0.57836,0
32039,704,0.29009,32952,-416,0.55226,0
32487,448,0.31781,33576,624,0.59141,0
32984,497,0.34855,34824,1248,0.66970,0
33064,80,0.35350,34456,-368,0.64661,0
33176,112,0.36043,35128,672,0.68877,0
33656,480,0.39013,36008,880,0.74398,0
33816,160,0.40002,36472,464,0.77309,0
34616,800,0.44952,36472,0,0.77309,0
35144,528,0.48218,36248,-224,0.75903,0
35352,208,0.49505,33992,-2256,0.61750,0
35400,48,0.49802,32840,-1152,0.54523,0
35608,208,0.51089,31927,-913,0.48795,0
35048,-560,0.47624,30359,-1568,0.38959,0
34520,-528,0.44358,30759,400,0.41468,0
34552,32,0.44556,31111,352,0.43676,0
34232,-320,0.42576,31751,640,0.47691,0
34296,64,0.42972,31815,64,0.48093,0
34424,128,0.43764,31687,-128,0.47290,0
34776,352,0.45942,32039,352,0.49498,0
34376,-400,0.43467,32952,913,0.55226,0
33880,-496,0.40398,33928,976,0.61349,0
34376,496,0.43467,34744,816,0.66468,0
34008,-368,0.41190,35240,496,0.69580,0
34056,48,0.41487,36200,960,0.75602,0
34168,112,0.42180,36168,-32,0.75402,0
34328,160,0.43170,35656,-512,0.72189,0
34344,16,0.43269,35688,32,0.72390,0
34200,-144,0.42378,35032,-656,0.68275,0
34344,144,0.43269,34376,-656,0.64159,0
34824,480,0.46239,33736,-640,0.60144,0
35416,592,0.49901,33848,112,0.60847,0
36088,672,0.54058,32071,-1777,0.49699,0
36456,368,0.56335,30183,-1888,0.37854,0
36392,-64,0.55939,29159,-1024,0.31430,0
36296,-96,0.55345,29479,320,0.33438,0
35592,-704,0.50990,30487,1008,0.39762,0
35304,-288,0.49208,31831,1344,0.48193,0
36648,1344,0.57523,31959,128,0.48996,0
37785,1137,0.64557,32631,672,0.53212,0
37289,-496,0.61488,33544,913,0.58940,0
35704,-1585,0.51683,33560,16,0.59040,0
34936,-768,0.46931,33304,-256,0.57434,0
33816,-1120,0.40002,32840,-464,0.54523,0
32039,-1777,0.29009,33240,400,0.57033,0
30375,-1664,0.18714,34168,928,0.62854,0
30039,-336,0.16636,35096,928,0.68676,0
30679,640,0.20595,34968,-128,0.67873,0
31111,432,0.23268,34392,-576,0.64260,0
31191,80,0.23763,33640,-752,0.59542,0
31671,480,0.26732,33720,80,0.60044,0
31591,-80,0.26237,34152,432,0.62754,0
31399,-192,0.25049,34440,288,0.64561,0
31879,480,0.28019,34776,336,0.66669,0
31927,48,0.28316,35304,528,0.69981,0
32407,480,0.31286,36360,1056,0.76606,0
32824,417,0.33865,36248,-112,0.75903,0
33496,672,0.38023,36168,-80,0.75402,0
33672,176,0.39112,35656,-512,0.72189,0
33736,64,0.39508,35624,-32,0.71989,0
34472,736,0.44061,35016,-608,0.68174,0
34376,-96,0.43467,33656,-1360,0.59642,0
33848,-528,0.40200,32471,-1185,0.52208,0
33752,-96,0.39607,33176,705,0.56631,0
33640,-112,0.38914,33656,480,0.59642,0
33416,-224,0.37528,33896,240,0.61148,0
33240,-176,0.36439,35064,1168,0.68476,0
33176,-64,0.36043,35416,352,0.70684,0
33688,512,0.39211,34696,-720,0.66167,0
34536,848,0.44457,33608,-1088,0.59341,0
34888,352,0.46634,33560,-48,0.59040,0
34984,96,0.47228,33448,-112,0.58338,0
34568,-416,0.44655,33096,-352,0.56129,0
35368,800,0.49604,33192,96,0.56731,0
36264,896,0.55147,33592,400,0.59241,0
36744,480,0.58117,33608,16,0.59341,0
36664,-80,0.57622,32824,-784,0.54423,0
36937,273,0.59311,32263,-561,0.50903,0
36792,-145,0.58414,32087,-176,0.49799,0
35608,-1184,0.51089,32711,624,0.53714,0
34568,-1040,0.44655,32503,-208,0.52409,0
33688,-880,0.39211,32359,-144,0.51506,0
32792,-896,0.33667,32856,497,0.54624,0
31543,-1249,0.25940,33960,1104,0.61550,0
31239,-304,0.24060,34808,848,0.66870,0
31591,352,0.26237,35496,688,0.71186,0
32471,880,0.31682,36120,624,0.75100,0
32904,433,0.34360,36873,753,0.79824,0
33960,1056,0.40893,37209,336,0.81932,0
34776,816,0.45942,36680,-529,0.78614,0
36616,1840,0.57325,34648,-2032,0.65866,0
38793,2177,0.70793,34616,-32,0.65665,0
40425,1632,0.80890,32824,-1792,0.54423,0
42730,2305,0.95150,30471,-2353,0.39661,0
43514,784,1.00000,28791,-1680,0.29122,0
41114,-2400,0.85152,29127,336,0.31230,0
36616,-4498,0.57325,31399,2272,0.45483,0
33448,-3168,0.37726,34568,3169,0.65364,0
30455,-2993,0.19209,36712,2144,0.78814,0
29079,-1376,0.10697,37369,657,0.82936,0
29815,736,0.15250,37257,-112,0.82233,0
30727,912,0.20892,35800,-1457,0.73093,0
31079,352,0.23070,34632,-1168,0.65765,0
30999,-80,0.22575,33768,-864,0.60345,0
30727,-272,0.20892,33080,-688,0.56029,0
30551,-176,0.19803,33960,880,0.61550,0
30647,96,0.20397,35208,1248,0.69379,0
31239,592,0.24060,36088,880,0.74900,0
31991,752,0.28712,36168,80,0.75402,0
32936,945,0.34558,35832,-336,0.73294,0
33480,544,0.37924,35816,-16,0.73193,0
33976,496,0.40992,36216,400,0.75703,0
34200,224,0.42378,36232,16,0.75803,0
34296,96,0.42972,35576,-656,0.71688,0
34104,-192,0.41784,34248,-1328,0.63356,0
33992,-112,0.41091,33352,-896,0.57735,0
34072,80,0.41586,32920,-432,0.55025,0
34136,64,0.41982,32087,-833,0.49799,0
34040,-96,0.41388,32055,-32,0.49598,0
33768,-272,0.39706,31991,-64,0.49197,0
33544,-224,0.38320,31415,-576,0.45583,0
33432,-112,0.37627,30807,-608,0.41769,0
33592,160,0.38617,31975,1168,0.49097,0
33768,176,0.39706,32295,320,0.51104,0
34264,496,0.42774,32631,336,0.53212,0
34136,-128,0.41982,33608,977,0.59341,0
34280,144,0.42873,33464,-144,0.58438,0
34360,80,0.43368,33720,256,0.60044,0
34504,144,0.44259,33640,-80,0.59542,0
34824,320,0.46239,33928,288,0.61349,0
34856,32,0.46437,33960,32,0.61550,0
34760,-96,0.45843,34024,64,0.61951,0
34824,64,0.46239,34136,112,0.62654,0
34616,-208,0.44952,34216,80,0.63156,0
34584,-32,0.44754,34568,352,0.65364,0
33736,-848,0.39508,34664,96,0.65966,0
33768,32,0.39706,35000,336,0.68074,0
34184,416,0.42279,34104,-896,0.62453,0
34952,768,0.47030,34184,80,0.62955,0
36584,1632,0.57127,33544,-640,0.58940,0
38553,1969,0.69308,31975,-1569,0.49097,0
40153,1600,0.79207,30839,-1136,0.41970,0
41674,1521,0.88617,29703,-1136,0.34843,0
42218,544,0.91982,29367,-336,0.32735,0
42426,208,0.93269,30535,1168,0.40063,0
41210,-1216,0.85746,30951,416,0.42673,0
38697,-2513,0.70199,32679,1728,0.53513,0
33864,-4833,0.40299,34744,2065,0.66468,0
29943,-3921,0.16042,36808,2064,0.79417,0
27350,-2593,0.00000,38249,1441,0.88457,0
27398,48,0.00297,38553,304,0.90364,0
28374,976,0.06335,38905,352,0.92572,0
30039,1665,0.16636,38617,-288,0.90765,0
30951,912,0.22278,37561,-1056,0.84141,0
31239,288,0.24060,36632,-929,0.78312,0
32199,960,0.29999,36392,-240,0.76807,0
32615,416,0.32572,35992,-400,0.74297,0
32776,161,0.33568,35544,-448,0.71487,0
33528,752,0.38221,35080,-464,0.68576,0
33688,160,0.39211,35016,-64,0.68174,0
33464,-224,0.37825,35112,96,0.68777,0
33992,528,0.41091,35880,768,0.73595,0
34408,416,0.43665,37433,1553,0.83338,0
34664,256,0.45249,38185,752,0.88055,0
34632,-32,0.45051,38745,560,0.91568,0
34744,112,0.45744,37833,-912,0.85847,0
34600,-144,0.44853,37209,-624,0.81932,0
35208,608,0.48614,37065,-144,0.81029,0
34952,-256,0.47030,36344,-721,0.76506,0
34088,-864,0.41685,35768,-576,0.72892,0
34328,240,0.43170,35272,-496,0.69780,0
33928,-400,0.40695,34392,-880,0.64260,0
33256,-672,0.36538,33976,-416,0.61650,0
32888,-368,0.34261,34328,352,0.63858,0
33048,160,0.35251,34440,112,0.64561,0
33736,688,0.39508,35064,624,0.68476,0
34536,800,0.44457,34584,-480,0.65464,0
35496,960,0.50396,35096,512,0.68676,0
35736,240,0.51881,35736,640,0.72691,0
34888,-848,0.46634,36472,736,0.77309,0
34952,64,0.47030,36248,-224,0.75903,0
35080,128,0.47822,36200,-48,0.75602,0
35704,624,0.51683,35112,-1088,0.68777,0
34520,-1184,0.44358,34408,-704,0.64360,0
33224,-1296,0.36340,32391,-2017,0.51706,0
33608,384,0.38716,31159,-1232,0.43977,0
34200,592,0.42378,29767,-1392,0.35245,0
34424,224,0.43764,28743,-1024,0.28821,0
33928,-496,0.40695,28246,-497,0.25703,0
33480,-448,0.37924,28630,384,0.28112,0
33128,-352,0.35746,29863,1233,0.35847,0
32888,-240,0.34261,31207,1344,0.44279,0
33048,160,0.35251,31751,544,0.47691,0
33048,0,0.35251,31255,-496,0.44580,0
32423,-625,0.31385,30423,-832,0.39360,0
33336,913,0.37033,30727,304,0.41267,0
33800,464,0.39903,30663,-64,0.40866,0
35112,1312,0.48020,29719,-944,0.34944,0
36504,1392,0.56632,28791,-928,0.29122,0
37801,1297,0.64656,27958,-833,0.23896,0
38953,1152,0.71783,27238,-720,0.19379,0
39673,720,0.76237,27014,-224,0.17974,0
39497,-176,0.75148,28038,1024,0.24398,0
38361,-1136,0.68121,30423,2385,0.39360,0
35496,-2865,0.50396,33384,2961,0.57936,0
33576,-1920,0.38518,35480,2096,0.71085,0
33160,-416,0.35944,38041,2561,0.87152,0
32055,-1105,0.29108,39177,1136,0.94279,0
31175,-880,0.23664,39769,592,0.97992,0
30359,-816,0.18615,39673,-96,0.97390,0
30439,80,0.19110,38505,-1168,0.90063,0
31159,720,0.23565,37833,-672,0.85847,0
31383,224,0.24951,36504,-1329,0.77509,0
31223,-160,0.23961,35496,-1008,0.71186,0
31239,16,0.24060,35352,-144,0.70282,0
31863,624,0.27920,36168,816,0.75402,0
31959,96,0.28514,35528,-640,0.71386,0
33224,1265,0.36340,35256,-272,0.69680,0
33432,208,0.37627,34616,-640,0.65665,0
33832,400,0.40101,34760,144,0.66568,0
34408,576,0.43665,34984,224,0.67974,0
35240,832,0.48812,35912,928,0.73795,0
36168,928,0.54553,35608,-304,0.71888,0
36424,256,0.56137,36392,784,0.76807,0
35912,-512,0.52970,35848,-544,0.73394,0
36184,272,0.54652,35496,-352,0.71186,0
36760,576,0.58216,34360,-1136,0.64059,0
36216,-544,0.54850,33432,-928,0.58237,0
34312,-1904,0.43071,33192,-240,0.56731,0
33336,-976,0.37033,33512,320,0.58739,0
33624,288,0.38815,33464,-48,0.58438,0
33272,-352,0.36637,32647,-817,0.53312,0
33768,496,0.39706,33368,721,0.57836,0
34104,336,0.41784,33352,-16,0.57735,0
34616,512,0.44952,33208,-144,0.56832,0
34680,64,0.45348,32487,-721,0.52309,0
34456,-224,0.43962,31447,-1040,0.45784,0
33592,-864,0.38617,31719,272,0.47491,0
33736,144,0.39508,32647,928,0.53312,0
33784,48,0.39805,33144,497,0.56430,0
34344,560,0.43269,33384,240,0.57936,0
34264,-80,0.42774,34136,752,0.62654,0
33752,-512,0.39607,35416,1280,0.70684,0
33160,-592,0.35944,36168,752,0.75402,0
33000,-160,0.34954,35896,-272,0.73695,0
33176,176,0.36043,36136,240,0.75201,0
34200,1024,0.42378,35512,-624,0.71286,0
34824,624,0.46239,33000,-2512,0.55527,0
36456,1632,0.56335,29703,-3297,0.34843,0
37929,1473,0.65448,27078,-2625,0.18375,0
38521,592,0.69110,25318,-1760,0.07334,0
38457,-64,0.68714,24854,-464,0.04423,0
38761,304,0.70595,24149,-705,0.00000,0
38313,-448,0.67824,26582,2433,0.15263,0
35000,-3313,0.47327,30439,3857,0.39460,0
30359,-4641,0.18615,34584,4145,0.65464,0
28983,-1376,0.10103,37977,3393,0.86750,0
28727,-256,0.08519,39273,1296,0.94881,0
29527,800,0.13468,39577,304,0.96788,0
30535,1008,0.19704,40089,512,1.00000,0
31447,912,0.25346,39497,-592,0.96286,0
32311,864,0.30692,37785,-1712,0.85546,0
33480,1169,0.37924,37145,-640,0.81531,0
34072,592,0.41586,37609,464,0.84442,0
34376,304,0.43467,37081,-528,0.81129,0
34024,-352,0.41289,36728,-353,0.78915,0
33624,-400,0.38815,36792,64,0.79316,0
34376,752,0.43467,36776,-16,0.79216,0
35224,848,0.48713,36440,-336,0.77108,0
36520,1296,0.56731,34920,-1520,0.67572,0
37081,561,0.60202,34888,-32,0.67371,0
36328,-753,0.55543,32872,-2016,0.54724,0
35560,-768,0.50792,31575,-1297,0.46587,0
36488,928,0.56533,31591,16,0.46688,0
36056,-432,0.53860,32583,992,0.52911,0
33416,-2640,0.37528,33448,865,0.58338,0
31095,-2321,0.23169,33672,224,0.59743,0
30567,-528,0.19902,34152,480,0.62754,0
31671,1104,0.26732,33944,-208,0.61449,0
31847,176,0.27821,33256,-688,0.57133,0
32167,320,0.29801,32792,-464,0.54222,0
32856,689,0.34063,32135,-657,0.50100,0
33112,256,0.35647,33096,961,0.56129,0
33464,352,0.37825,32952,-144,0.55226,0
33592,128,0.38617,32503,-449,0.52409,0
33288,-304,0.36736,32087,-416,0.49799,0
33544,256,0.38320,32471,384,0.52208,0
34168,624,0.42180,33256,785,0.57133,0
34072,-96,0.41586,33656,400,0.59642,0
33640,-432,0.38914,33400,-256,0.58036,0
35624,0,0.96346,35576,0,0.77966,1
35384,-240,0.91364,35176,-400,0.71639,1
34760,-624,0.78410,35032,-144,0.69361,1
33960,-800,0.61802,34424,-608,0.59744,1
33736,-224,0.57152,34872,448,0.66830,1
34360,624,0.70106,34200,-672,0.56201,1
33160,-1200,0.45194,33288,-912,0.41775,1
33416,256,0.50509,33832,544,0.50380,1
33848,432,0.59477,34680,848,0.63793,1
34344,496,0.69774,35192,512,0.71892,1
34776,432,0.78742,35880,688,0.82774,1
34632,-144,0.75753,36568,688,0.93657,1
34520,-112,0.73427,36808,240,0.97453,1
34392,-128,0.70770,36969,161,1.00000,1
34216,-176,0.67116,36696,-273,0.95682,1
34664,448,0.76417,36921,225,0.99241,1
34504,-160,0.73095,36873,-48,0.98481,1
34712,208,0.77413,36776,-97,0.96947,1
34632,-80,0.75753,36392,-384,0.90873,1
34472,-160,0.72431,36200,-192,0.87836,1
34536,64,0.73760,36120,-80,0.86571,1
34968,432,0.82728,35864,-256,0.82521,1
35032,64,0.84056,35336,-528,0.74170,1
34840,-192,0.80071,35144,-192,0.71133,1
34824,-16,0.79738,35224,80,0.72398,1
34536,-288,0.73760,35304,80,0.73663,1
34376,-160,0.70438,35384,80,0.74929,1
33928,-448,0.61138,35016,-368,0.69108,1
33768,-160,0.57816,35048,32,0.69614,1
33576,-192,0.53830,35144,96,0.71133,1
34008,432,0.62798,35224,80,0.72398,1
34504,496,0.73095,34968,-256,0.68349,1
34344,-160,0.69774,34584,-384,0.62275,1
34568,224,0.74424,35128,544,0.70879,1
34632,64,0.75753,34552,-576,0.61768,1
34664,32,0.76417,34280,-272,0.57466,1
34456,-208,0.72099,33864,-416,0.50886,1
34376,-80,0.70438,34296,432,0.57719,1
34232,-144,0.67449,33880,-416,0.51139,1
33992,-240,0.62466,33688,-192,0.48102,1
33752,-240,0.57484,33576,-112,0.46330,1
33592,-160,0.54162,32824,-752,0.34435,1
33416,-176,0.50509,32503,-321,0.29358,1
33096,-320,0.43865,32375,-128,0.27333,1
33416,320,0.50509,32327,-48,0.26574,1
33592,176,0.54162,32407,80,0.27839,1
33480,-112,0.51837,32407,0,0.27839,1
34056,576,0.63795,32968,561,0.36713,1
33272,-784,0.47519,33176,208,0.40003,1
33864,592,0.59809,33288,112,0.41775,1
33832,-32,0.59145,33048,-240,0.37978,1
33560,-272,0.53498,32647,-401,0.31636,1
33320,-240,0.48516,32167,-480,0.24043,1
33944,624,0.61470,31655,-512,0.15944,1
34232,288,0.67449,31175,-480,0.08352,1
34664,432,0.76417,31703,528,0.16704,1
34680,16,0.76749,32343,640,0.26827,1
34392,-288,0.70770,32535,192,0.29864,1
34392,0,0.70770,32856,321,0.34941,1
33928,-464,0.61138,32711,-145,0.32648,1
33592,-336,0.54162,32679,-32,0.32142,1
34264,672,0.68113,32679,0,0.32142,1
33400,-864,0.50176,32776,97,0.33676,1
33464,64,0.51505,32904,128,0.35701,1
33624,160,0.54827,33688,784,0.48102,1
33592,-32,0.54162,33768,80,0.49367,1
33672,80,0.55823,34408,640,0.59491,1
33992,320,0.62466,35064,656,0.69867,1
34184,192,0.66452,35528,464,0.77207,1
34520,336,0.73427,35896,368,0.83028,1
34600,80,0.75088,35960,64,0.84040,1
34296,-304,0.68777,36056,96,0.85558,1
34872,576,0.80735,36312,256,0.89608,1
34360,-512,0.70106,35256,-1056,0.72904,1
34520,160,0.73427,35480,224,0.76447,1
34376,-144,0.70438,35528,48,0.77207,1
34424,48,0.71435,35784,256,0.81256,1
34424,0,0.71435,36168,384,0.87330,1
34392,-32,0.70770,36264,96,0.88848,1
34376,-16,0.70438,36072,-192,0.85811,1
34232,-144,0.67449,35128,-944,0.70879,1
34184,-48,0.66452,34600,-528,0.62528,1
34248,64,0.67781,34312,-288,0.57972,1
34248,0,0.67781,34232,-80,0.56707,1
33992,-256,0.62466,33816,-416,0.50127,1
33752,-240,0.57484,33384,-432,0.43293,1
33464,-288,0.51505,33768,384,0.49367,1
33560,96,0.53498,33160,-608,0.39750,1
33544,-16,0.53166,32776,-384,0.33676,1
33624,80,0.54827,32776,0,0.33676,1
33624,0,0.54827,32615,-161,0.31129,1
33592,-32,0.54162,32359,-256,0.27080,1
33624,32,0.54827,32551,192,0.30117,1
33592,-32,0.54162,32087,-464,0.22778,1
33592,0,0.54162,32968,881,0.36713,1
33736,144,0.57152,33064,96,0.38232,1
33544,-192,0.53166,32936,-128,0.36207,1
33432,-112,0.50841,33064,128,0.38232,1
33944,512,0.61470,33416,352,0.43799,1
34232,288,0.67449,33608,192,0.46836,1
34296,64,0.68777,34584,976,0.62275,1
33496,-800,0.52169,34008,-576,0.53164,1
33992,496,0.62466,34376,368,0.58984,1
33752,-240,0.57484,33784,-592,0.49620,1
33848,96,0.59477,33432,-352,0.44053,1
33640,-208,0.55159,34072,640,0.54176,1
34056,416,0.63795,34376,304,0.58984,1
34584,528,0.74756,34456,80,0.60250,1
34552,-32,0.74092,34232,-224,0.56707,1
34456,-96,0.72099,33704,-528,0.48355,1
34552,96,0.74092,34120,416,0.54935,1
34408,-144,0.71102,33544,-576,0.45824,1
34264,-144,0.68113,33272,-272,0.41522,1
34088,-176,0.64459,32295,-977,0.26068,1
33960,-128,0.61802,33512,1217,0.45318,1
34088,128,0.64459,34216,704,0.56454,1
34040,-48,0.63463,34264,48,0.57213,1
34152,112,0.65788,34600,336,0.62528,1
34280,128,0.68445,34792,192,0.65565,1
33544,-736,0.53166,33864,-928,0.50886,1
34392,848,0.70770,33272,-592,0.41522,1
33816,-576,0.58813,32695,-577,0.32395,1
33752,-64,0.57484,32615,-80,0.31129,1
34008,256,0.62798,33688,1073,0.48102,1
33832,-176,0.59145,33128,-560,0.39244,1
33960,128,0.61802,33592,464,0.46583,1
33896,-64,0.60473,34328,736,0.58225,1
34200,304,0.66784,33400,-928,0.43546,1
34056,-144,0.63795,33320,-80,0.42281,1
34216,160,0.67116,33032,-288,0.37725,1
33528,-688,0.52834,33240,208,0.41016,1
34328,800,0.69442,33784,544,0.49620,1
34280,-48,0.68445,32904,-880,0.35701,1
34328,48,0.69442,33336,432,0.42534,1
34296,-32,0.68777,32824,-512,0.34435,1
33768,-528,0.57816,33032,208,0.37725,1
33800,32,0.58480,32952,-80,0.36460,1
33656,-144,0.55491,33192,240,0.40256,1
33432,-224,0.50841,32936,-256,0.36207,1
33736,304,0.57152,33720,784,0.48608,1
33944,208,0.61470,34312,592,0.57972,1
34264,320,0.68113,34664,352,0.63540,1
34424,160,0.71435,33624,-1040,0.47090,1
34648,224,0.76085,32888,-736,0.35448,1
34600,-48,0.75088,32647,-241,0.31636,1
34008,-592,0.62798,32615,-32,0.31129,1
33592,-416,0.54162,32519,-96,0.29611,1
33320,-272,0.48516,33288,769,0.41775,1
33592,272,0.54162,32856,-432,0.34941,1
33400,-192,0.50176,32455,-401,0.28599,1
33432,32,0.50841,32727,272,0.32901,1
33720,288,0.56820,32327,-400,0.26574,1
33160,-560,0.45194,32471,144,0.28852,1
33496,336,0.52169,32920,449,0.35954,1
33464,-32,0.51505,32840,-80,0.34688,1
33448,-16,0.51173,33368,528,0.43040,1
33320,-128,0.48516,33944,576,0.52151,1
33720,400,0.56820,34328,384,0.58225,1
33848,128,0.59477,34328,0,0.58225,1
33800,-48,0.58480,34040,-288,0.53670,1
34120,320,0.65124,34648,608,0.63287,1
34088,-32,0.64459,34952,304,0.68096,1
33976,-112,0.62134,34824,-128,0.66071,1
33640,-336,0.55159,34056,-768,0.53923,1
33560,-80,0.53498,33800,-256,0.49873,1
33688,128,0.56155,33368,-432,0.43040,1
33480,-208,0.51837,33384,16,0.43293,1
33640,160,0.55159,32727,-657,0.32901,1
33480,-160,0.51837,32727,0,0.32901,1
33720,240,0.56820,32872,145,0.35195,1
33848,128,0.59477,32519,-353,0.29611,1
33816,-32,0.58813,32968,449,0.36713,1
34120,304,0.65124,33080,112,0.38485,1
34184,64,0.66452,33736,656,0.48861,1
34072,-112,0.64127,32888,-848,0.35448,1
34120,48,0.65124,33256,368,0.41269,1
33864,-256,0.59809,32679,-577,0.32142,1
33784,-80,0.58148,32199,-480,0.24549,1
33704,-80,0.56487,31943,-256,0.20500,1
33832,128,0.59145,32007,64,0.21512,1
33848,16,0.59477,32439,432,0.28345,1
34136,288,0.65456,33496,1057,0.45065,1
33896,-240,0.60473,33272,-224,0.41522,1
33640,-256,0.55159,32808,-464,0.34182,1
32984,-656,0.41540,32359,-449,0.27080,1
33240,256,0.46855,33032,673,0.37725,1
33096,-144,0.43865,32023,-1009,0.21765,1
32984,-112,0.41540,32247,224,0.25308,1
33016,32,0.42205,32359,112,0.27080,1
33176,160,0.45526,33080,721,0.38485,1
33080,-96,0.43533,32583,-497,0.30623,1
33336,256,0.48848,32039,-544,0.22018,1
33544,208,0.53166,31847,-192,0.18981,1
33816,272,0.58813,31671,-176,0.16197,1
34024,208,0.63131,31751,80,0.17463,1
34600,576,0.75088,33160,1409,0.39750,1
34680,80,0.76749,32519,-641,0.29611,1
34664,-16,0.76417,32439,-80,0.28345,1
34776,112,0.78742,32792,353,0.33929,1
34888,112,0.81067,33032,240,0.37725,1
34072,-816,0.64127,32439,-593,0.28345,1
33080,-992,0.43533,31975,-464,0.21006,1
32872,-208,0.39215,31575,-400,0.14679,1
32535,-337,0.32219,32103,528,0.23031,1
32711,176,0.35873,31943,-160,0.20500,1
32920,209,0.40212,31671,-272,0.16197,1
32984,64,0.41540,31799,128,0.18222,1
33128,144,0.44530,31351,-448,0.11136,1
32824,-304,0.38219,30823,-528,0.02784,1
32872,48,0.39215,30823,0,0.02784,1
32439,-433,0.30226,30855,32,0.03290,1
32727,288,0.36205,30983,128,0.05315,1
32776,49,0.37222,31527,544,0.13920,1
33016,240,0.42205,31767,240,0.17716,1
33544,528,0.53166,31831,64,0.18728,1
33048,-496,0.42869,31543,-288,0.14173,1
33608,560,0.54495,31367,-176,0.11389,1
34056,448,0.63795,31511,144,0.13667,1
34248,192,0.67781,31175,-336,0.08352,1
34120,-128,0.65124,32327,1152,0.26574,1
34088,-32,0.64459,32295,-32,0.26068,1
33880,-208,0.60141,32263,-32,0.25562,1
33784,-96,0.58148,32327,64,0.26574,1
33608,-176,0.54495,32455,128,0.28599,1
33416,-192,0.50509,32407,-48,0.27839,1
33304,-112,0.48184,32327,-80,0.26574,1
33672,368,0.55823,31751,-576,0.17463,1
33848,176,0.59477,32359,608,0.27080,1
33640,-208,0.55159,32135,-224,0.23537,1
33592,-48,0.54162,32103,-32,0.23031,1
33768,176,0.57816,32535,432,0.29864,1
33704,-64,0.56487,32423,-112,0.28092,1
33640,-64,0.55159,32263,-160,0.25562,1
33272,-368,0.47519,32087,-176,0.22778,1
33816,544,0.58813,32455,368,0.28599,1
33640,-176,0.55159,32583,128,0.30623,1
33864,224,0.59809,32551,-32,0.30117,1
33960,96,0.61802,32904,353,0.35701,1
33944,-16,0.61470,31927,-977,0.20247,1
33976,32,0.62134,32279,352,0.25815,1
34072,96,0.64127,32904,625,0.35701,1
33896,-176,0.60473,32567,-337,0.30370,1
33096,-800,0.43865,32471,-96,0.28852,1
33848,752,0.59477,32583,112,0.30623,1
33800,-48,0.58480,32776,193,0.33676,1
34392,592,0.70770,32327,-449,0.26574,1
33528,-864,0.52834,32183,-144,0.24296,1
33720,192,0.56820,32103,-80,0.23031,1
33464,-256,0.51505,32119,16,0.23284,1
33480,16,0.51837,31863,-256,0.19234,1
33432,-48,0.50841,32071,208,0.22525,1
33544,112,0.53166,32647,576,0.31636,1
33432,-112,0.50841,31847,-800,0.18981,1
33512,80,0.52502,32215,368,0.24802,1
33608,96,0.54495,32599,384,0.30876,1
33752,144,0.57484,32936,337,0.36207,1
33608,-144,0.54495,33080,144,0.38485,1
33688,80,0.56155,33128,48,0.39244,1
33624,-64,0.54827,33176,48,0.40003,1
33752,128,0.57484,33096,-80,0.38738,1
33336,-416,0.48848,32936,-160,0.36207,1
34104,768,0.64791,32567,-369,0.30370,1
34024,-80,0.63131,32327,-240,0.26574,1
34024,0,0.63131,32535,208,0.29864,1
33992,-32,0.62466,32776,241,0.33676,1
33992,0,0.62466,33064,288,0.38232,1
34168,176,0.66120,33736,672,0.48861,1
33944,-224,0.61470,33608,-128,0.46836,1
33608,-336,0.54495,33192,-416,0.40256,1
33768,160,0.57816,33016,-176,0.37472,1
33880,112,0.60141,32631,-385,0.31382,1
32471,-1409,0.30891,31319,-1312,0.10630,1
32023,-448,0.21590,31127,-192,0.07593,1
32135,112,0.23915,31607,480,0.15185,1
32343,208,0.28233,31399,-208,0.11895,1
32135,-208,0.23915,31511,112,0.13667,1
32295,160,0.27237,31463,-48,0.12907,1
32311,16,0.27569,31303,-160,0.10376,1
32359,48,0.28565,30647,-656,0.00000,1
32663,304,0.34876,31415,768,0.12148,1
32904,241,0.39880,31207,-208,0.08858,1
32824,-80,0.38219,31239,32,0.09364,1
32888,64,0.39547,31415,176,0.12148,1
32776,-112,0.37222,31223,-192,0.09111,1
32423,-353,0.29894,31271,48,0.09870,1
32695,272,0.35541,31271,0,0.09870,1
32792,97,0.37554,31079,-192,0.06833,1
33128,336,0.44530,31031,-48,0.06074,1
33096,-32,0.43865,31127,96,0.07593,1
32679,-417,0.35209,31303,176,0.10376,1
33032,353,0.42537,31543,240,0.14173,1
33016,-16,0.42205,31847,304,0.18981,1
33032,16,0.42537,31527,-320,0.13920,1
32503,-529,0.31555,31495,-32,0.13413,1
32695,192,0.35541,31191,-304,0.08605,1
32920,225,0.40212,31367,176,0.11389,1
33016,96,0.42205,31479,112,0.13160,1
32936,-80,0.40544,31431,-48,0.12401,1
32952,16,0.40876,31559,128,0.14426,1
33416,464,0.50509,31959,400,0.20753,1
33864,448,0.59809,31495,-464,0.13413,1
33784,-80,0.58148,31511,16,0.13667,1
33496,-288,0.52169,31319,-192,0.10630,1
33224,-272,0.46523,31639,320,0.15691,1
33016,-208,0.42205,32423,784,0.28092,1
32615,-401,0.33880,31911,-512,0.19994,1
32215,-400,0.25576,31863,-48,0.19234,1
31831,-384,0.17604,31591,-272,0.14932,1
31463,-368,0.09965,31223,-368,0.09111,1
31127,-336,0.02989,30647,-576,0.00000,1
30983,-144,0.00000,30663,16,0.00253,1
31607,624,0.12954,30807,144,0.02531,1
31751,144,0.15944,30983,176,0.05315,1
31991,240,0.20926,31319,336,0.10630,1
33000,1009,0.41873,31367,48,0.11389,1
32247,-753,0.26240,31447,80,0.12654,1
32247,0,0.26240,31415,-32,0.12148,1
32423,176,0.29894,31415,0,0.12148,1
32407,-16,0.29562,31543,128,0.14173,1
32407,0,0.29562,31687,144,0.16450,1
32487,80,0.31223,31591,-96,0.14932,1
32023,-464,0.21590,31447,-144,0.12654,1
32439,416,0.30226,31687,240,0.16450,1
32856,417,0.38883,32631,944,0.31382,1
32952,96,0.40876,31783,-848,0.17969,1
32856,-96,0.38883,31895,112,0.19741,1
33368,512,0.49512,31847,-48,0.18981,1
32840,-528,0.38551,31863,16,0.19234,1
32920,80,0.40212,31767,-96,0.17716,1
33384,464,0.49844,31863,96,0.19234,1
33624,240,0.54827,31959,96,0.20753,1
32872,-752,0.39215,31511,-448,0.13667,1
33032,160,0.42537,31991,480,0.21259,1
33048,16,0.42869,32055,64,0.22271,1
33192,144,0.45858,32087,32,0.22778,1
33048,-144,0.42869,32311,224,0.26321,1
33080,32,0.43533,32455,144,0.28599,1
33400,320,0.50176,32888,433,0.35448,1
33224,-176,0.46523,32840,-48,0.34688,1
33688,464,0.56155,33016,176,0.37472,1
33944,256,0.61470,33368,352,0.43040,1
33336,-608,0.48848,33592,224,0.46583,1
33400,64,0.50176,33432,-160,0.44053,1
33832,432,0.59145,33016,-416,0.37472,1
33480,-352,0.51837,33864,848,0.50886,1
33912,432,0.60805,32920,-944,0.35954,1
33784,-128,0.58148,32856,-64,0.34941,1
33640,-144,0.55159,33064,208,0.38232,1
33528,-112,0.52834,33032,-32,0.37725,1
32968,-560,0.41208,32920,-112,0.35954,1
33480,512,0.51837,33416,496,0.43799,1
33288,-192,0.47851,32439,-977,0.28345,1
33176,-112,0.45526,32151,-288,0.23790,1
33464,288,0.51505,31799,-352,0.18222,1
33544,80,0.53166,32231,432,0.25055,1
33784,240,0.58148,32567,336,0.30370,1
33416,-368,0.50509,32567,0,0.30370,1
33464,48,0.51505,32599,32,0.30876,1
32984,-480,0.41540,32599,0,0.30876,1
33224,240,0.46523,32631,32,0.31382,1
33112,-112,0.44198,32055,-576,0.22271,1
33064,-48,0.43201,32647,592,0.31636,1
32952,-112,0.40876,32599,-48,0.30876,1
32888,-64,0.39547,33480,881,0.44812,1
33608,720,0.54495,32840,-640,0.34688,1
33192,-416,0.45858,32631,-209,0.31382,1
33592,400,0.54162,32519,-112,0.29611,1
33720,128,0.56820,32423,-96,0.28092,1
33800,80,0.58480,32327,-96,0.26574,1
33832,32,0.59145,32279,-48,0.25815,1
33864,32,0.59809,32503,224,0.29358,1
33384,-480,0.49844,32295,-208,0.26068,1
33880,496,0.60141,32439,144,0.28345,1
33720,-160,0.56820,32776,337,0.33676,1
34376,656,0.70438,32968,192,0.36713,1
33640,-736,0.55159,33320,352,0.42281,1
33912,272,0.60805,33096,-224,0.38738,1
33864,-48,0.59809,33000,-96,0.37219,1
33480,-384,0.51837,32792,-208,0.33929,1
33400,-80,0.50176,32984,192,0.36966,1
33464,64,0.51505,33096,112,0.38738,1
33416,-48,0.50509,33016,-80,0.37472,1
33288,-128,0.47851,32776,-240,0.33676,1
33400,112,0.50176,32808,32,0.34182,1
34600,1200,0.75088,32904,96,0.35701,1
33688,-912,0.56155,32695,-209,0.32395,1
33784,96,0.58148,32631,-64,0.31382,1
34088,304,0.64459,32583,-48,0.30623,1
34552,464,0.74092,32840,257,0.34688,1
34472,-80,0.72431,32455,-385,0.28599,1
34312,-160,0.69109,33096,641,0.38738,1
34088,-224,0.64459,32968,-128,0.36713,1
33800,-288,0.58480,32711,-257,0.32648,1
33416,-384,0.50509,32567,-144,0.30370,1
33224,-192,0.46523,32519,-48,0.29611,1
33256,32,0.47187,32679,160,0.32142,1
33416,160,0.50509,32695,16,0.32395,1
33608,192,0.54495,32872,177,0.35195,1
33832,224,0.59145,33032,160,0.37725,1
34184,352,0.66452,32647,-385,0.31636,1
34104,-80,0.64791,32583,-64,0.30623,1
33448,-656,0.51173,32519,-64,0.29611,1
34120,672,0.65124,32663,144,0.31889,1
34056,-64,0.63795,32567,-96,0.30370,1
33688,-368,0.56155,32519,-48,0.29611,1
33224,-464,0.46523,32583,64,0.30623,1
33096,-128,0.43865,32711,128,0.32648,1
33016,-80,0.42205,32023,-688,0.21765,1
33032,16,0.42537,32695,672,0.32395,1
33160,128,0.45194,32872,177,0.35195,1
32888,-272,0.39547,33096,224,0.38738,1
33336,448,0.48848,32824,-272,0.34435,1
33160,-176,0.45194,32599,-225,0.30876,1
33528,368,0.52834,32407,-192,0.27839,1
33736,208,0.57152,32487,80,0.29105,1
33880,144,0.60141,33208,721,0.40509,1
33944,64,0.61470,33048,-160,0.37978,1
33944,0,0.61470,32984,-64,0.36966,1
33832,-112,0.59145,33048,64,0.37978,1
33672,-160,0.55823,32647,-401,0.31636,1
33656,-16,0.55491,32391,-256,0.27586,1
33256,-400,0.47187,32247,-144,0.25308,1
33080,-176,0.43533,32343,96,0.26827,1
33000,-80,0.41873,32824,481,0.34435,1
32968,-32,0.41208,32904,80,0.35701,1
32968,0,0.41208,32808,-96,0.34182,1
33256,288,0.47187,32615,-193,0.31129,1
33496,240,0.52169,32711,96,0.32648,1
33480,-16,0.51837,31943,-768,0.20500,1
33800,320,0.58480,32455,512,0.28599,1
33816,16,0.58813,32792,337,0.33929,1
33800,-16,0.58480,32407,-385,0.27839,1
33640,-160,0.55159,32295,-112,0.26068,1
33576,-64,0.53830,32311,16,0.26321,1
32872,-704,0.39215,32263,-48,0.25562,1
33368,496,0.49512,32583,320,0.30623,1
33272,-96,0.47519,32519,-64,0.29611,1
33176,-96,0.45526,32487,-32,0.29105,1
33208,32,0.46191,32663,176,0.31889,1
33192,-16,0.45858,32872,209,0.35195,1
33384,192,0.49844,32856,-16,0.34941,1
33480,96,0.51837,32647,-209,0.31636,1
33688,208,0.56155,32551,-96,0.30117,1
33816,128,0.58813,32439,-112,0.28345,1
34776,960,0.78742,32423,-16,0.28092,1
33560,-1216,0.53498,32471,48,0.28852,1
33800,240,0.58480,32439,-32,0.28345,1
33720,-80,0.56820,32631,192,0.31382,1
33960,240,0.61802,33784,1153,0.49620,1
34024,64,0.63131,33672,-112,0.47849,1
34072,48,0.64127,34776,1104,0.65312,1
33992,-80,0.62466,34504,-272,0.61009,1
33912,-80,0.60805,34168,-336,0.55694,1
34088,176,0.64459,34312,144,0.57972,1
34104,16,0.64791,33528,-784,0.45571,1
34136,32,0.65456,33496,-32,0.45065,1
34392,256,0.70770,34024,528,0.53417,1
34312,-80,0.69109,33768,-256,0.49367,1
34232,-80,0.67449,33928,160,0.51898,1
34616,384,0.75420,35016,1088,0.69108,1
35800,1184,1.00000,35848,832,0.82268,1
35288,-512,0.89371,35880,32,0.82774,1
34824,-464,0.79738,35176,-704,0.71639,1
34792,-32,0.79074,35384,208,0.74929,1
34616,-176,0.75420,34856,-528,0.66577,1
34472,-144,0.72431,34632,-224,0.63034,1
34552,80,0.74092,34632,0,0.63034,1
34536,-16,0.73760,34472,-160,0.60503,1
33976,-560,0.62134,33704,-768,0.48355,1
34520,544,0.73427,34168,464,0.55694,1
34664,144,0.76417,34312,144,0.57972,1
34040,-624,0.63463,35080,768,0.70120,1
34296,256,0.68777,34280,-800,0.57466,1
35016,720,0.83724,34328,48,0.58225,1
34872,-144,0.80735,34536,208,0.61515,1
34664,-208,0.76417,34168,-368,0.55694,1
34568,-96,0.74424,33800,-368,0.49873,1
34792,224,0.79074,33560,-240,0.46077,1
34920,128,0.81731,33224,-336,0.40762,1
34728,-192,0.77745,34088,864,0.54429,1
34520,-208,0.73427,33960,-128,0.52404,1
34392,-128,0.70770,33496,-464,0.45065,1
34104,-288,0.64791,33656,160,0.47596,1
33608,-496,0.54495,33432,-224,0.44053,1
33576,-32,0.53830,33992,560,0.52910,1
33912,336,0.60805,34056,64,0.53923,1
34200,288,0.66784,34568,512,0.62022,1
34456,256,0.72099,34136,-432,0.55188,1
34568,112,0.74424,34200,64,0.56201,1
34248,-320,0.67781,33688,-512,0.48102,1
34296,48,0.68777,33592,-96,0.46583,1
34216,-80,0.67116,33192,-400,0.40256,1
34408,192,0.71102,33480,288,0.44812,1
34008,-400,0.62798,33672,192,0.47849,1
33816,-192,0.58813,34536,864,0.61515,1
33752,-64,0.57484,33864,-672,0.50886,1
34008,256,0.62798,33720,-144,0.48608,1
33416,-592,0.50509,33544,-176,0.45824,1
33208,-208,0.46191,33752,208,0.49114,1
33000,-208,0.41873,33720,-32,0.48608,1
32263,0,0.23072,33736,0,0.49839,0
32423,160,0.24860,33224,-512,0.44678,0
32599,176,0.26828,33416,192,0.46614,0
33288,689,0.34529,33688,272,0.49355,0
32936,-352,0.30595,33960,272,0.52096,0
33064,128,0.32025,34328,368,0.55805,0
33416,352,0.35960,34808,480,0.60643,0
33560,144,0.37570,34904,96,0.61611,0
33976,416,0.42220,35272,368,0.65319,0
34680,704,0.50089,34552,-720,0.58063,0
35288,608,0.56886,33368,-1184,0.46130,0
36088,800,0.65828,32984,-384,0.42260,0
35640,-448,0.60820,31927,-1057,0.31607,0
35192,-448,0.55813,31191,-736,0.24189,0
34616,-576,0.49374,31239,48,0.24672,0
34296,-320,0.45797,32439,1200,0.36767,0
33976,-320,0.42220,33880,1441,0.51290,0
34312,336,0.45976,34152,272,0.54031,0
34376,64,0.46691,33832,-320,0.50806,0
34056,-320,0.43114,34392,560,0.56450,0
33672,-384,0.38822,35064,672,0.63223,0
32631,-1041,0.27185,35336,272,0.65965,0
32984,353,0.31131,35464,128,0.67255,0
32631,-353,0.27185,35864,400,0.71286,0
32071,-560,0.20926,36008,144,0.72737,0
31879,-192,0.18779,35672,-336,0.69351,0
32824,945,0.29343,35416,-256,0.66771,0
34104,1280,0.43651,33640,-1776,0.48871,0
34824,720,0.51699,33032,-608,0.42743,0
34696,-128,0.50268,32071,-961,0.33058,0
34696,0,0.50268,32295,224,0.35315,0
35016,320,0.53845,33448,1153,0.46936,0
34504,-512,0.48122,32984,-464,0.42260,0
34216,-288,0.44903,32936,-48,0.41776,0
33496,-720,0.36854,33240,304,0.44840,0
32968,-528,0.30952,33128,-112,0.43711,0
32824,-144,0.29343,33304,176,0.45485,0
32055,-769,0.20747,33096,-208,0.43388,0
31975,-80,0.19852,33608,512,0.48549,0
32599,624,0.26828,34488,880,0.57418,0
33016,417,0.31489,34312,-176,0.55644,0
32663,-353,0.27543,33720,-592,0.49677,0
33688,1025,0.39001,33896,176,0.51451,0
33640,-48,0.38464,34616,720,0.58708,0
33064,-576,0.32025,35208,592,0.64674,0
33016,-48,0.31489,35384,176,0.66448,0
32968,-48,0.30952,35864,480,0.71286,0
33000,32,0.31310,35240,-624,0.64997,0
33000,0,0.31310,33496,-1744,0.47420,0
34232,1232,0.45082,32311,-1185,0.35477,0
35480,1248,0.59032,32487,176,0.37251,0
36584,1104,0.71373,32663,176,0.39024,0
37561,977,0.82294,31911,-752,0.31445,0
38345,784,0.91057,30871,-1040,0.20964,0
39145,800,1.00000,31191,320,0.24189,0
37737,-1408,0.84261,31863,672,0.30961,0
33880,-3857,0.41147,33704,1841,0.49516,0
31175,-2705,0.10910,36184,2480,0.74511,0
30455,-720,0.02862,36328,144,0.75963,0
30295,-160,0.01073,37097,769,0.83713,0
30199,-96,0.00000,35400,-1697,0.66610,0
30551,352,0.03935,33768,-1632,0.50161,0
30951,400,0.08406,31303,-2465,0.25317,0
31927,976,0.19316,29911,-1392,0.11288,0
32007,80,0.20210,29591,-320,0.08063,0
32407,400,0.24681,29895,304,0.11127,0
32711,304,0.28080,30039,144,0.12578,0
33096,385,0.32383,30455,416,0.16771,0
32343,-753,0.23966,32007,1552,0.32413,0
31783,-560,0.17706,33288,1281,0.45324,0
31783,0,0.17706,33384,96,0.46291,0
32888,1105,0.30058,33816,432,0.50645,0
32631,-257,0.27185,33704,-112,0.49516,0
32808,177,0.29164,33976,272,0.52258,0
31863,-945,0.18600,34520,544,0.57740,0
32055,192,0.20747,35272,752,0.65319,0
32808,753,0.29164,35800,528,0.70641,0
33208,400,0.33635,35720,-80,0.69835,0
33848,640,0.40789,36104,384,0.73705,0
34440,592,0.47407,35800,-304,0.70641,0
34440,0,0.47407,34840,-960,0.60966,0
34952,512,0.53130,34040,-800,0.52903,0
34872,-80,0.52236,34232,192,0.54838,0
35080,208,0.54561,35272,1040,0.65319,0
35512,432,0.59390,35304,32,0.65642,0
37049,1537,0.76571,33896,-1408,0.51451,0
36104,-945,0.66007,33976,80,0.52258,0
33800,-2304,0.40253,34664,688,0.59192,0
32487,-1313,0.25576,35816,1152,0.70802,0
33640,1153,0.38464,35832,16,0.70964,0
34344,704,0.46334,34456,-1376,0.57095,0
34696,352,0.50268,33304,-1152,0.45485,0
34728,32,0.50626,32519,-785,0.37573,0
33992,-736,0.42399,32087,-432,0.33219,0
32968,-1024,0.30952,32039,-48,0.32735,0
32519,-449,0.25933,32119,80,0.33542,0
31879,-640,0.18779,32167,48,0.34025,0
31591,-288,0.15560,32119,-48,0.33542,0
32071,480,0.20926,32071,-48,0.33058,0
31463,-608,0.14129,32695,624,0.39347,0
31751,288,0.17349,32631,-64,0.38702,0
31623,-128,0.15918,32583,-48,0.38218,0
31671,48,0.16454,32103,-480,0.33380,0
31927,256,0.19316,32519,416,0.37573,0
32167,240,0.21999,32872,353,0.41131,0
32167,0,0.21999,32647,-225,0.38863,0
32279,112,0.23251,33112,465,0.43550,0
32023,-256,0.20389,33480,368,0.47259,0
32423,400,0.24860,34824,1344,0.60804,0
32455,32,0.25218,35976,1152,0.72415,0
32247,-208,0.22893,37065,1089,0.83390,0
33080,833,0.32204,37449,384,0.87261,0
34328,1248,0.46155,36744,-705,0.80155,0
35000,672,0.53666,35272,-1472,0.65319,0
35720,720,0.61715,34920,-352,0.61772,0
36552,832,0.71015,34104,-816,0.53548,0
37897,1345,0.86050,32984,-1120,0.42260,0
37817,-80,0.85155,31799,-1185,0.30316,0
35736,-2081,0.61894,31415,-384,0.26446,0
33544,-2192,0.37391,31031,-384,0.22576,0
32423,-1121,0.24860,32375,1344,0.36122,0
32071,-352,0.20926,32407,32,0.36444,0
31831,-240,0.18243,32535,128,0.37734,0
32279,448,0.23251,32920,385,0.41615,0
32263,-16,0.23072,33416,496,0.46614,0
32455,192,0.25218,33512,96,0.47581,0
32711,256,0.28080,32824,-688,0.40647,0
32679,-32,0.27722,32808,-16,0.40486,0
32808,129,0.29164,32968,160,0.42098,0
32071,-737,0.20926,33672,704,0.49194,0
32343,272,0.23966,34008,336,0.52580,0
32391,48,0.24503,33944,-64,0.51935,0
32327,-64,0.23787,34120,176,0.53709,0
32535,208,0.26112,34072,-48,0.53225,0
32776,241,0.28806,34200,128,0.54515,0
32824,48,0.29343,34600,400,0.58547,0
34024,1200,0.42757,34840,240,0.60966,0
33832,-192,0.40610,35272,432,0.65319,0
34632,800,0.49553,35240,-32,0.64997,0
35288,656,0.56886,35128,-112,0.63868,0
35256,-32,0.56528,35000,-128,0.62578,0
35848,592,0.63146,33496,-1504,0.47420,0
36424,576,0.69584,31367,-2129,0.25963,0
36856,432,0.74413,30903,-464,0.21286,0
36921,65,0.75140,30935,32,0.21609,0
36296,-625,0.68153,31415,480,0.26446,0
35864,-432,0.63324,31255,-160,0.24834,0
34696,-1168,0.50268,31639,384,0.28704,0
34776,80,0.51163,33352,1713,0.45969,0
33528,-1248,0.37212,35240,1888,0.64997,0
32327,-1201,0.23787,36056,816,0.73221,0
32840,513,0.29522,37209,1153,0.84842,0
32888,48,0.30058,38057,848,0.93388,0
32968,80,0.30952,38713,656,1.00000,0
32615,-353,0.27006,38169,-544,0.94517,0
32583,-32,0.26649,36808,-1361,0.80800,0
31575,-1008,0.15381,35368,-1440,0.66287,0
32776,1201,0.28806,35240,-128,0.64997,0
32952,176,0.30774,35080,-160,0.63384,0
33224,272,0.33814,34680,-400,0.59353,0
33736,512,0.39537,33656,-1024,0.49032,0
34344,608,0.46334,32519,-1137,0.37573,0
35384,1040,0.57959,31863,-656,0.30961,0
36056,672,0.65471,32119,256,0.33542,0
36520,464,0.70657,31303,-816,0.25317,0
36200,-320,0.67080,31687,384,0.29188,0
35272,-928,0.56707,31991,304,0.32252,0
33608,-1664,0.38106,33224,1233,0.44678,0
32135,-1473,0.21641,33960,736,0.52096,0
32039,-96,0.20568,35288,1328,0.65481,0
32183,144,0.22178,35064,-224,0.63223,0
32567,384,0.26470,34696,-368,0.59514,0
33064,497,0.32025,34728,32,0.59837,0
33432,368,0.36139,34760,32,0.60159,0
33800,368,0.40253,34968,208,0.62256,0
33768,-32,0.39895,35032,64,0.62901,0
34200,432,0.44724,35272,240,0.65319,0
34248,48,0.45260,35112,-160,0.63707,0
33832,-416,0.40610,35400,288,0.66610,0
33640,-192,0.38464,36360,960,0.76285,0
33960,320,0.42041,36792,432,0.80639,0
34600,640,0.49195,36937,145,0.82100,0
34824,224,0.51699,36760,-177,0.80316,0
34904,80,0.52593,36136,-624,0.74027,0
34936,32,0.52951,35192,-944,0.64513,0
34936,0,0.52951,34840,-352,0.60966,0
34392,-544,0.46870,33848,-992,0.50968,0
33432,-960,0.36139,32103,-1745,0.33380,0
32792,-640,0.28985,31015,-1088,0.22415,0
32824,32,0.29343,30919,-96,0.21447,0
33144,320,0.32920,31367,448,0.25963,0
33000,-144,0.31310,31975,608,0.32090,0
32471,-529,0.25397,32151,176,0.33864,0
32615,144,0.27006,32391,240,0.36283,0
33896,1281,0.41326,33240,849,0.44840,0
33496,-400,0.36854,33464,224,0.47097,0
33944,448,0.41862,33496,32,0.47420,0
35304,1360,0.57065,33064,-432,0.43066,0
35080,-224,0.54561,32615,-449,0.38541,0
36248,1168,0.67617,32936,321,0.41776,0
37257,1009,0.78896,32087,-849,0.33219,0
36120,-1137,0.66186,31671,-416,0.29026,0
34360,-1760,0.46512,30855,-816,0.20802,0
32968,-1392,0.30952,31543,688,0.27736,0
31447,-1521,0.13950,33080,1537,0.43227,0
30855,-592,0.07333,35848,2768,0.71125,0
31559,704,0.15202,37161,1313,0.84358,0
32952,1393,0.30774,38249,1088,0.95324,0
34344,1392,0.46334,38217,-32,0.95001,0
35112,768,0.54918,36905,-1312,0.81778,0
35256,144,0.56528,34968,-1937,0.62256,0
35320,64,0.57243,33544,-1424,0.47904,0
35880,560,0.63503,32856,-688,0.40970,0
35528,-352,0.59569,32936,80,0.41776,0
34216,-1312,0.44903,33672,736,0.49194,0
33176,-1040,0.33277,34248,576,0.54999,0
33112,-64,0.32562,34952,704,0.62094,0
33336,224,0.35066,34808,-144,0.60643,0
33480,144,0.36676,34376,-432,0.56289,0
33400,-80,0.35781,33880,-496,0.51290,0
32583,-817,0.26649,33176,-704,0.44195,0
32792,209,0.28985,32551,-625,0.37896,0
32679,-113,0.27722,32183,-368,0.34187,0
33016,337,0.31489,31847,-336,0.30800,0
33368,352,0.35424,32231,384,0.34670,0
33576,208,0.37749,32679,448,0.39186,0
33512,-64,0.37033,32792,113,0.40325,0
33000,-512,0.31310,32327,-465,0.35638,0
32583,-417,0.26649,33240,913,0.44840,0
32471,-112,0.25397,32343,-897,0.35799,0
32423,-48,0.24860,32215,-128,0.34509,0
32599,176,0.26828,31991,-224,0.32252,0
33224,625,0.33814,32679,688,0.39186,0
34072,848,0.43293,32776,97,0.40163,0
34248,176,0.45260,32808,32,0.40486,0
34152,-96,0.44187,33144,336,0.43872,0
34744,592,0.50805,34040,896,0.52903,0
35272,528,0.56707,33448,-592,0.46936,0
35544,272,0.59747,32840,-608,0.40808,0
34984,-560,0.53488,31975,-865,0.32090,0
35112,128,0.54918,33160,1185,0.44033,0
35016,-96,0.53845,32103,-1057,0.33380,0
35112,96,0.54918,31671,-432,0.29026,0
35352,240,0.57601,31159,-512,0.23866,0
34824,-528,0.51699,30999,-160,0.22254,0
34536,-288,0.48480,31527,528,0.27575,0
33512,-1024,0.37033,32455,928,0.36928,0
33832,320,0.40610,32375,-80,0.36122,0
33928,96,0.41683,32519,144,0.37573,0
34504,576,0.48122,33560,1041,0.48065,0
33752,-752,0.39716,33912,352,0.51613,0
33288,-464,0.34529,33848,-64,0.50968,0
32583,-705,0.26649,33720,-128,0.49677,0
31575,-1008,0.15381,33592,-128,0.48387,0
31367,-208,0.13056,33576,-16,0.48226,0
31479,112,0.14308,33240,-336,0.44840,0
32007,528,0.20210,32567,-673,0.38057,0
32263,256,0.23072,32167,-400,0.34025,0
31575,-688,0.15381,31863,-304,0.30961,0
31751,176,0.17349,31895,32,0.31284,0
31767,16,0.17527,32856,961,0.40970,0
32263,496,0.23072,33608,752,0.48549,0
32872,609,0.29879,33928,320,0.51774,0
33224,352,0.33814,34120,192,0.53709,0
33576,352,0.37749,34648,528,0.59030,0
34232,656,0.45082,34696,48,0.59514,0
35352,1120,0.57601,34632,-64,0.58869,0
36296,944,0.68153,34904,272,0.61611,0
36232,-64,0.67438,35304,400,0.65642,0
35320,-912,0.57243,34792,-512,0.60482,0
34712,-608,0.50447,34984,192,0.62417,0
34840,128,0.51878,34952,-32,0.62094,0
35256,416,0.56528,33672,-1280,0.49194,0
35368,112,0.57780,31239,-2433,0.24672,0
34872,-496,0.52236,30631,-608,0.18545,0
33656,-1216,0.38643,30919,288,0.21447,0
32503,-1153,0.25755,31975,1056,0.32090,0
31399,-1104,0.13414,32856,881,0.40970,0
30727,-672,0.05902,33608,752,0.48549,0
30567,-160,0.04114,34856,1248,0.61127,0
30999,432,0.08943,34744,-112,0.59998,0
31543,544,0.15023,34296,-448,0.55483,0
32071,528,0.20926,34360,64,0.56128,0
32583,512,0.26649,34152,-208,0.54031,0
32519,-64,0.25933,34040,-112,0.52903,0
32343,-176,0.23966,33576,-464,0.48226,0
31815,-528,0.18064,33048,-528,0.42905,0
31319,-496,0.12520,33128,80,0.43711,0
32119,800,0.21462,33848,720,0.50968,0
32071,-48,0.20926,34248,400,0.54999,0
33720,1649,0.39358,34280,32,0.55322,0
32984,-736,0.31131,34360,80,0.56128,0
33432,448,0.36139,33400,-960,0.46452,0
33832,400,0.40610,33016,-384,0.42582,0
34664,832,0.49911,32183,-833,0.34187,0
35672,1008,0.61178,31511,-672,0.27414,0
36600,928,0.71552,30791,-720,0.20157,0
36632,32,0.71909,29719,-1072,0.09353,0
36632,0,0.71909,28823,-896,0.00323,0
36312,-320,0.68332,29479,656,0.06934,0
35048,-1264,0.54203,31287,1808,0.25156,0
33320,-1728,0.34887,33496,2209,0.47420,0
32327,-993,0.23787,34712,1216,0.59675,0
32231,-96,0.22714,35112,400,0.63707,0
32567,336,0.26470,35224,112,0.64836,0
32407,-160,0.24681,35624,400,0.68867,0
32231,-176,0.22714,35352,-272,0.66126,0
32631,400,0.27185,35400,48,0.66610,0
32888,257,0.30058,34440,-960,0.56934,0
32599,-289,0.26828,33816,-624,0.50645,0
32711,112,0.28080,34792,976,0.60482,0
32824,113,0.29343,33544,-1248,0.47904,0
32711,-113,0.28080,34200,656,0.54515,0
32824,113,0.29343,32824,-1376,0.40647,0
32840,16,0.29522,32007,-817,0.32413,0
33128,288,0.32741,32391,384,0.36283,0
33112,-16,0.32562,33064,673,0.43066,0
33336,224,0.35066,33816,752,0.50645,0
33672,336,0.38822,33576,-240,0.48226,0
34232,560,0.45082,32487,-1089,0.37251,0
34216,-16,0.44903,31911,-576,0.31445,0
34520,304,0.48301,30999,-912,0.22254,0
34552,32,0.48659,31095,96,0.23221,0
34760,208,0.50984,31287,192,0.25156,0
35080,320,0.54561,31335,48,0.25640,0
33960,-1120,0.42041,31847,512,0.30800,0
33832,-128,0.40610,32503,656,0.37412,0
33320,-512,0.34887,33560,1057,0.48065,0
34088,768,0.43472,33896,336,0.51451,0
34856,768,0.52057,33144,-752,0.43872,0
35384,528,0.57959,32055,-1089,0.32897,0
36312,928,0.68332,30439,-1616,0.16610,0
37225,913,0.78538,28791,-1648,0.00000,0
38281,1056,0.90342,28935,144,0.01451,0
38329,48,0.90879,29479,544,0.06934,0
37961,-368,0.86765,31527,2048,0.27575,0
35496,-2465,0.59211,33448,1921,0.46936,0
32776,-2720,0.28806,34040,592,0.52903,0
32039,-737,0.20568,33816,-224,0.50645,0
33128,1089,0.32741,34200,384,0.54515,0
32904,-224,0.30237,34056,-144,0.53064,0
32487,-417,0.25576,33096,-960,0.43388,0
32840,353,0.29522,33512,416,0.47581,0
32679,-161,0.27722,34136,624,0.53870,0
32343,-336,0.23966,35224,1088,0.64836,0
32455,112,0.25218,35336,112,0.65965,0
32327,-128,0.23787,35464,128,0.67255,0
32007,-320,0.20210,35224,-240,0.64836,0
31975,-32,0.19852,35832,608,0.70964,0
31911,-64,0.19137,36168,336,0.74350,0
32119,208,0.21462,36376,208,0.76446,0
31991,-128,0.20031,35656,-720,0.69190,0
32071,80,0.20926,34760,-896,0.60159,0
32503,432,0.25755,34504,-256,0.57579,0
32904,401,0.30237,34344,-160,0.55967,0
32792,-112,0.28985,33992,-352,0.52419,0
33752,960,0.39716,33848,-144,0.50968,0
33672,-80,0.38822,34472,624,0.57257,0
33896,224,0.41326,35096,624,0.63546,0
33576,-320,0.37749,34936,-160,0.61933,0
33272,-304,0.34351,34472,-464,0.57257,0
32776,-496,0.28806,33928,-544,0.51774,0
32295,-481,0.23429,34232,304,0.54838,0
32455,160,0.25218,34936,704,0.61933,0
32904,449,0.30237,35256,320,0.65158,0
33016,112,0.31489,35016,-240,0.62739,0
33224,208,0.33814,35128,112,0.63868,0
33240,16,0.33993,34072,-1056,0.53225,0
33768,528,0.39895,33224,-848,0.44678,0
33720,-48,0.39358,33160,-64,0.44033,0
33208,-512,0.33635,33512,352,0.47581,0
33288,80,0.34529,34536,1024,0.57902,0
33752,464,0.39716,35112,576,0.63707,0
34632,880,0.49553,34664,-448,0.59192,0
35480,848,0.59032,33128,-1536,0.43711,0
35896,416,0.63682,31431,-1697,0.26608,0
36776,880,0.73519,30455,-976,0.16771,0
35976,-800,0.64576,30615,160,0.18383,0
34472,-1504,0.47764,31175,560,0.24027,0
33432,-1040,0.36139,32103,928,0.33380,0
32840,-592,0.29522,32567,464,0.38057,0
31895,-945,0.18958,32519,-48,0.37573,0
31671,-224,0.16454,32231,-288,0.34670,0
31751,80,0.17349,32599,368,0.38379,0
31799,48,0.17885,33320,721,0.45646,0
32183,384,0.22178,34376,1056,0.56289,0
32647,464,0.27364,34344,-32,0.55967,0
33336,689,0.35066,34616,272,0.58708,0
33944,608,0.41862,34552,-64,0.58063,0
34072,128,0.43293,34472,-80,0.57257,0
33608,-464,0.38106,34376,-96,0.56289,0
34584,976,0.49016,34296,-80,0.55483,0
34712,128,0.50447,33656,-640,0.49032,0
34520,-192,0.48301,33128,-528,0.43711,0
34712,192,0.50447,33032,-96,0.42743,0
35208,496,0.55992,32888,-144,0.41292,0
35800,592,0.62609,32567,-321,0.38057,0
36408,608,0.69405,32247,-320,0.34832,0
36760,352,0.73340,31799,-448,0.30316,0
36296,-464,0.68153,32647,848,0.38863,0
35656,-640,0.60999,32583,-64,0.38218,0
35000,-656,0.53666,32007,-576,0.32413,0
34216,-784,0.44903,32872,865,0.41131,0
33576,-640,0.37749,33640,768,0.48871,0
33640,64,0.38464,34424,784,0.56773,0
34312,672,0.45976,34408,-16,0.56612,0
35352,1040,0.57601,34024,-384,0.52741,0
35784,432,0.62430,34232,208,0.54838,0
36424,640,0.69584,34040,-192,0.52903,0
37049,625,0.76571,34264,224,0.55160,0
37065,16,0.76749,34872,608,0.61288,0
35816,-1249,0.62788,34680,-192,0.59353,0
33784,-2032,0.40074,34856,176,0.61127,0
32727,-1057,0.28258,35544,688,0.68061,0
31799,-928,0.17885,35864,320,0.71286,0
31351,-448,0.12877,36232,368,0.74995,0
31799,448,0.17885,36536,304,0.78059,0
32519,720,0.25933,36488,-48,0.77575,0
33112,593,0.32562,35816,-672,0.70802,0
32984,-128,0.31131,34920,-896,0.61772,0
32904,-80,0.30237,33720,-1200,0.49677,0
32872,-32,0.29879,32727,-993,0.39669,0
33224,352,0.33814,32984,257,0.42260,0
33416,192,0.35960,33032,48,0.42743,0
33480,64,0.36676,33384,352,0.46291,0
33592,112,0.37928,33512,128,0.47581,0
33688,96,0.39001,33448,-64,0.46936,0
33672,-16,0.38822,33192,-256,0.44356,0
34904,1232,0.52593,34568,1376,0.58224,0
34632,-272,0.49553,35368,800,0.66287,0
34328,-304,0.46155,35640,272,0.69028,0
34552,224,0.48659,36136,496,0.74027,0
34696,144,0.50268,37081,945,0.83552,0
34520,-176,0.48301,36568,-513,0.78381,0
34504,-16,0.48122,36937,369,0.82100,0
34136,-368,0.44008,36328,-609,0.75963,0
34408,272,0.47049,36104,-224,0.73705,0
33576,-832,0.37749,35048,-1056,0.63062,0
33240,-336,0.33993,34392,-656,0.56450,0
33000,-240,0.31310,34984,592,0.62417,0
32615,-385,0.27006,34568,-416,0.58224,0
32295,-320,0.23429,34360,-208,0.56128,0
32583,288,0.26649,34744,384,0.59998,0
33144,561,0.32920,34792,48,0.60482,0
33608,464,0.38106,35032,240,0.62901,0
33816,208,0.40431,34152,-880,0.54031,0
35016,1200,0.53845,33416,-736,0.46614,0
34264,-752,0.45439,31911,-1505,0.31445,0
33768,-496,0.39895,31959,48,0.31929,0
33512,-256,0.37033,31367,-592,0.25963,0
33912,400,0.41505,31031,-336,0.22576,0
34472,560,0.47764,31063,32,0.22899,0
33896,-576,0.41326,31207,144,0.24350,0
34168,272,0.44366,30983,-224,0.22092,0
34456,288,0.47586,30455,-528,0.16771,0
34328,-128,0.46155,29655,-800,0.08708,0
34680,352,0.50089,30103,448,0.13223,0
34744,64,0.50805,30679,576,0.19028,0
34440,-304,0.47407,30727,48,0.19512,0
34520,80,0.48301,31255,528,0.24834,0
34488,-32,0.47943,32391,1136,0.36283,0
33960,-528,0.42041,32519,128,0.37573,0
33880,-80,0.41147,31447,-1072,0.26769,0
34472,592,0.47764,31927,480,0.31607,0
34968,496,0.53309,31671,-256,0.29026,0
35304,336,0.57065,31111,-560,0.23382,0
35784,480,0.62430,31015,-96,0.22415,0
36296,512,0.68153,30519,-496,0.17416,0
36776,480,0.73519,30247,-272,0.14674,0
37113,337,0.77286,30231,-16,0.14513,0
35960,-1153,0.64397,30855,624,0.20802,0
33976,-1984,0.42220,32487,1632,0.37251,0
32039,-1937,0.20568,34184,1697,0.54354,0
31975,-64,0.19852,35096,912,0.63546,0
32231,256,0.22714,35864,768,0.71286,0
32039,-192,0.20568,35784,-80,0.70480,0
31879,-160,0.18779,36808,1024,0.80800,0
32007,128,0.20210,36552,-256,0.78220,0
32343,336,0.23966,36969,417,0.82423,0
32695,352,0.27901,37305,336,0.85809,0
32119,-576,0.21462,36248,-1057,0.75156,0
31431,-688,0.13772,35608,-640,0.68706,0
31559,128,0.15202,35304,-304,0.65642,0
32103,544,0.21283,35688,384,0.69512,0
32327,224,0.23787,34984,-704,0.62417,0
32311,-16,0.23608,33976,-1008,0.52258,0
33064,753,0.32025,33208,-768,0.44517,0
34072,1008,0.43293,33896,688,0.51451,0
34648,576,0.49732,33544,-352,0.47904,0
34872,224,0.52236,32872,-672,0.41131,0
34840,-32,0.51878,32263,-609,0.34993,0
34776,-64,0.51163,32391,128,0.36283,0
34600,-176,0.49195,32711,320,0.39508,0
33896,-704,0.41326,32888,177,0.41292,0
32984,-912,0.31131,32535,-353,0.37734,0
31815,-1169,0.18064,32535,0,0.37734,0
31879,64,0.18779,31847,-688,0.30800,0
31719,-160,0.16991,31287,-560,0.25156,0
31927,208,0.19316,31239,-48,0.24672,0
32359,432,0.24145,32007,768,0.32413,0
33800,0,0.35714,33304,0,0.22672,1
33640,-160,0.28571,32872,-432,0.18332,1
33496,-144,0.22143,32535,-337,0.14947,1
33464,-32,0.20714,32631,96,0.15912,1
33480,16,0.21429,32423,-208,0.13822,1
33512,32,0.22857,32727,304,0.16876,1
34088,576,0.48571,32695,-32,0.16554,1
33416,-672,0.18571,32968,273,0.19297,1
33992,576,0.44286,32792,-176,0.17529,1
33704,-288,0.31429,32920,128,0.18815,1
33576,-128,0.25714,32872,-48,0.18332,1
33672,96,0.30000,32920,48,0.18815,1
33720,48,0.32143,32936,16,0.18975,1
34312,592,0.58571,32776,-160,0.17368,1
33704,-608,0.31429,32263,-513,0.12215,1
33784,80,0.35000,32856,593,0.18172,1
34200,416,0.53571,32872,16,0.18332,1
33608,-592,0.27143,32391,-481,0.13501,1
33768,160,0.34286,32872,481,0.18332,1
34328,560,0.59286,33048,176,0.20100,1
33640,-688,0.28571,32487,-561,0.14465,1
33768,128,0.34286,33176,689,0.21386,1
33880,112,0.39286,33528,352,0.24922,1
33832,-48,0.37143,33640,112,0.26047,1
33672,-160,0.30000,33336,-304,0.22993,1
34440,768,0.64286,34520,1184,0.34887,1
34488,48,0.66429,33672,-848,0.26369,1
34872,384,0.83571,33064,-608,0.20261,1
34856,-16,0.82857,32984,-80,0.19458,1
34952,96,0.87143,32952,-32,0.19136,1
35080,128,0.92857,33064,112,0.20261,1
34216,-864,0.54286,33240,176,0.22029,1
33560,-656,0.25000,33016,-224,0.19779,1
33272,-288,0.12143,32856,-160,0.18172,1
33272,0,0.12143,32519,-337,0.14787,1
33288,16,0.12857,32776,257,0.17368,1
33304,16,0.13571,32487,-289,0.14465,1
33352,48,0.15714,32567,80,0.15269,1
33464,112,0.20714,32904,337,0.18654,1
33720,256,0.32143,33384,480,0.23476,1
33816,96,0.36429,33736,352,0.27012,1
33640,-176,0.28571,33704,-32,0.26690,1
33000,-640,0.00000,33048,-656,0.20100,1
33384,384,0.17143,32904,-144,0.18654,1
33448,64,0.20000,32311,-593,0.12697,1
33688,240,0.30714,32391,80,0.13501,1
34040,352,0.46429,32455,64,0.14144,1
34120,80,0.50000,33128,673,0.20904,1
34056,-64,0.47143,33000,-128,0.19618,1
33288,-768,0.12857,32952,-48,0.19136,1
33832,544,0.37143,32519,-433,0.14787,1
33336,-496,0.15000,33048,529,0.20100,1
33672,336,0.30000,33368,320,0.23315,1
33640,-32,0.28571,33192,-176,0.21547,1
33496,-144,0.22143,32039,-1153,0.09965,1
33304,-192,0.13571,31863,-176,0.08197,1
33160,-144,0.07143,31719,-144,0.06750,1
33416,256,0.18571,32279,560,0.12376,1
33528,112,0.23571,32455,176,0.14144,1
33576,48,0.25714,32535,80,0.14947,1
33608,32,0.27143,32936,401,0.18975,1
33672,64,0.30000,33048,112,0.20100,1
33672,0,0.30000,32920,-128,0.18815,1
33560,-112,0.25000,33688,768,0.26529,1
33576,16,0.25714,32984,-704,0.19458,1
33736,160,0.32857,33256,272,0.22190,1
33768,32,0.34286,32984,-272,0.19458,1
33432,-336,0.19286,32936,-48,0.18975,1
33800,368,0.35714,32952,16,0.19136,1
34120,320,0.50000,33240,288,0.22029,1
34424,304,0.63571,33288,48,0.22511,1
34312,-112,0.58571,33272,-16,0.22351,1
34024,-288,0.45714,32519,-753,0.14787,1
33944,-80,0.42143,32487,-32,0.14465,1
33848,-96,0.37857,32936,449,0.18975,1
34408,560,0.62857,33128,192,0.20904,1
33096,-1312,0.04286,32343,-785,0.13019,1
33864,768,0.38571,33416,1073,0.23797,1
33960,96,0.42857,33288,-128,0.22511,1
33896,-64,0.40000,33368,80,0.23315,1
33832,-64,0.37143,33368,0,0.23315,1
33800,-32,0.35714,32808,-560,0.17690,1
33768,-32,0.34286,33192,384,0.21547,1
33736,-32,0.32857,33096,-96,0.20583,1
33192,-544,0.08571,33000,-96,0.19618,1
33320,128,0.14286,33288,288,0.22511,1
33544,224,0.24286,33336,48,0.22993,1
33560,16,0.25000,33544,208,0.25083,1
33592,32,0.26429,33640,96,0.26047,1
33720,128,0.32143,33688,48,0.26529,1
33912,192,0.40714,33544,-144,0.25083,1
34120,208,0.50000,32327,-1217,0.12858,1
34120,0,0.50000,33400,1073,0.23636,1
33992,-128,0.44286,33560,160,0.25244,1
33880,-112,0.39286,33432,-128,0.23958,1
33736,-144,0.32857,33160,-272,0.21226,1
33608,-128,0.27143,32888,-272,0.18493,1
33560,-48,0.25000,32727,-161,0.16876,1
