raw_emg1,derivative_emg1,normalized_emg1,raw_emg2,derivative_emg2,normalized_emg2,label
33256,0,0.48551,32631,0,0.32789,1
34296,1040,0.60324,32279,-352,0.28363,1
35256,960,0.71191,32936,657,0.36623,1
36136,880,0.81152,33608,672,0.45072,1
35896,-240,0.78436,33304,-304,0.41250,1
34760,-1136,0.65576,32359,-945,0.29369,1
33624,-1136,0.52717,32007,-352,0.24943,1
33016,-608,0.45834,31991,-16,0.24742,1
32487,-529,0.39846,32007,16,0.24943,1
32199,-288,0.36586,31895,-112,0.23535,1
31447,-752,0.28073,32215,320,0.27558,1
31063,-384,0.23727,32631,416,0.32789,1
31431,368,0.27892,32407,-224,0.29972,1
32055,624,0.34956,32423,16,0.30173,1
32455,400,0.39484,32151,-272,0.26754,1
32904,449,0.44566,32423,272,0.30173,1
32888,-16,0.44385,32792,369,0.34813,1
32776,-112,0.43117,32888,96,0.36020,1
32647,-129,0.41657,33448,560,0.43060,1
32471,-176,0.39665,33928,480,0.49095,1
32055,-416,0.34956,33640,-288,0.45474,1
32007,-48,0.34412,34216,576,0.52716,1
32695,688,0.42201,33304,-912,0.41250,1
32359,-336,0.38397,32679,-625,0.33392,1
32231,-128,0.36948,33192,513,0.39842,1
32551,320,0.40571,33096,-96,0.38635,1
33400,849,0.50181,33176,80,0.39640,1
35352,1952,0.72278,33032,-144,0.37830,1
35512,160,0.74089,33416,384,0.42658,1
35560,48,0.74632,33224,-192,0.40244,1
35176,-384,0.70285,33176,-48,0.39640,1
34280,-896,0.60143,33416,240,0.42658,1
33896,-384,0.55796,33832,416,0.47888,1
33544,-352,0.51811,33880,48,0.48491,1
32327,-1217,0.38035,33720,-160,0.46480,1
31879,-448,0.32964,33544,-176,0.44267,1
31607,-272,0.29885,33624,80,0.45273,1
31639,32,0.30247,33880,256,0.48491,1
31975,336,0.34050,34600,720,0.57543,1
32343,368,0.38216,35192,592,0.64986,1
32407,64,0.38940,35464,272,0.68406,1
32471,64,0.39665,34600,-864,0.57543,1
33048,577,0.46197,34392,-208,0.54928,1
33640,592,0.52898,35096,704,0.63779,1
33576,-64,0.52173,34888,-208,0.61164,1
33944,368,0.56339,33432,-1456,0.42859,1
34184,240,0.59056,33512,80,0.43865,1
33560,-624,0.51992,33288,-224,0.41049,1
32679,-881,0.42019,34024,736,0.50302,1
32247,-432,0.37129,34424,400,0.55331,1
32151,-96,0.36043,33416,-1008,0.42658,1
31879,-272,0.32964,31623,-1793,0.20116,1
32055,176,0.34956,30887,-736,0.10862,1
32407,352,0.38940,31111,224,0.13679,1
30903,-1504,0.21915,30839,-272,0.10259,1
31559,656,0.29341,30807,-32,0.09857,1
32247,688,0.37129,32311,1504,0.28765,1
32231,-16,0.36948,32727,416,0.33995,1
32551,320,0.40571,33320,593,0.41451,1
33048,497,0.46197,33528,208,0.44066,1
34648,1600,0.64308,34184,656,0.52313,1
33016,-1632,0.45834,33928,-256,0.49095,1
32792,-224,0.43299,33704,-224,0.46279,1
32583,-209,0.40933,33528,-176,0.44066,1
32519,-64,0.40208,34056,528,0.50704,1
32856,337,0.44023,34344,288,0.54325,1
33016,160,0.45834,34840,496,0.60561,1
32792,-224,0.43299,35880,1040,0.73636,1
32055,-737,0.34956,36280,400,0.78665,1
31751,-304,0.31515,36840,560,0.85705,1
32599,848,0.41114,37401,561,0.92758,1
33656,1057,0.53079,37977,576,1.00000,1
34232,576,0.59599,37369,-608,0.92356,1
34408,176,0.61592,36472,-897,0.81079,1
34600,192,0.63765,35368,-1104,0.67199,1
35192,592,0.70466,35336,-32,0.66797,1
35048,-144,0.68836,35192,-144,0.64986,1
34728,-320,0.65214,34952,-240,0.61969,1
34264,-464,0.59962,35272,320,0.65992,1
33528,-736,0.51630,34776,-496,0.59756,1
32968,-560,0.45291,33880,-896,0.48491,1
33128,160,0.47102,33304,-576,0.41250,1
32936,-192,0.44929,33048,-256,0.38031,1
32920,-16,0.44748,34744,1696,0.59354,1
32343,-577,0.38216,35176,432,0.64785,1
33496,1153,0.51268,35464,288,0.68406,1
33784,288,0.54528,35224,-240,0.65388,1
34504,720,0.62678,34280,-944,0.53520,1
34584,80,0.63584,34072,-208,0.50905,1
34616,32,0.63946,33032,-1040,0.37830,1
34664,48,0.64489,33240,208,0.40445,1
34552,-112,0.63222,34520,1280,0.56538,1
34248,-304,0.59780,35032,512,0.62975,1
33768,-480,0.54347,34984,-48,0.62371,1
33720,-48,0.53803,34920,-64,0.61567,1
33464,-256,0.50906,34600,-320,0.57543,1
33784,320,0.54528,33944,-656,0.49296,1
33944,160,0.56339,33448,-496,0.43060,1
34552,608,0.63222,33688,240,0.46077,1
34376,-176,0.61229,34520,832,0.56538,1
34088,-288,0.57969,34664,144,0.58348,1
33656,-432,0.53079,34424,-240,0.55331,1
33720,64,0.53803,33880,-544,0.48491,1
33688,-32,0.53441,33480,-400,0.43462,1
33256,-432,0.48551,32856,-624,0.35617,1
33576,320,0.52173,32295,-561,0.28564,1
32343,-1233,0.38216,32663,368,0.33191,1
31815,-528,0.32239,33224,561,0.40244,1
31255,-560,0.25900,33560,336,0.44468,1
30871,-384,0.21553,33688,128,0.46077,1
30727,-144,0.19923,33288,-400,0.41049,1
30599,-128,0.18474,32455,-833,0.30576,1
31079,480,0.23908,31959,-496,0.24340,1
30823,-256,0.21010,31975,16,0.24541,1
30727,-96,0.19923,31879,-96,0.23334,1
31223,496,0.25538,31751,-128,0.21725,1
31703,480,0.30971,32375,624,0.29570,1
31719,16,0.31152,32423,48,0.30173,1
31015,-704,0.23183,31783,-640,0.22127,1
31303,288,0.26443,32375,592,0.29570,1
31383,80,0.27349,32311,-64,0.28765,1
32135,752,0.35861,32631,320,0.32789,1
33544,1409,0.51811,32663,32,0.33191,1
35400,1856,0.72821,32727,64,0.33995,1
36392,992,0.84050,32647,-80,0.32990,1
36905,513,0.89857,33032,385,0.37830,1
36969,64,0.90582,32872,-160,0.35818,1
36376,-593,0.83869,32567,-305,0.31984,1
36104,-272,0.80790,32727,160,0.33995,1
34488,-1616,0.62497,31719,-1008,0.21323,1
33480,-1008,0.51087,30567,-1152,0.06839,1
33512,32,0.51449,30551,-16,0.06638,1
31847,-1665,0.32601,30999,448,0.12271,1
29879,-1968,0.10324,30615,-384,0.07443,1
29959,80,0.11229,31175,560,0.14483,1
29607,-352,0.07245,31719,544,0.21323,1
30343,736,0.15576,32263,544,0.28162,1
30823,480,0.21010,32808,545,0.35014,1
31127,304,0.24451,33080,272,0.38433,1
31591,464,0.29703,33080,0,0.38433,1
31847,256,0.32601,33352,272,0.41853,1
31431,-416,0.27892,33256,-96,0.40646,1
31655,224,0.30428,33320,64,0.41451,1
31079,-576,0.23908,33768,448,0.47083,1
30471,-608,0.17025,33352,-416,0.41853,1
30663,192,0.19199,32487,-865,0.30978,1
31031,368,0.23364,31831,-656,0.22731,1
31159,128,0.24813,32087,256,0.25949,1
31111,-48,0.24270,32455,368,0.30576,1
31895,784,0.33145,33496,1041,0.43664,1
31063,-832,0.23727,31783,-1713,0.22127,1
30887,-176,0.21734,32007,224,0.24943,1
31015,128,0.23183,31943,-64,0.24139,1
30871,-144,0.21553,31479,-464,0.18305,1
30471,-400,0.17025,30999,-480,0.12271,1
31511,1040,0.28798,31223,224,0.15087,1
31911,400,0.33326,31319,96,0.16294,1
31943,32,0.33688,30823,-496,0.10058,1
31527,-416,0.28979,30231,-592,0.02615,1
31287,-240,0.26262,30023,-208,0.00000,1
31415,128,0.27711,30423,400,0.05029,1
31495,80,0.28617,30535,112,0.06437,1
31703,208,0.30971,30855,320,0.10460,1
31831,128,0.32420,30599,-256,0.07242,1
31927,96,0.33507,30295,-304,0.03420,1
31543,-384,0.29160,30503,208,0.06035,1
30903,-640,0.21915,30919,416,0.11265,1
31047,144,0.23545,31815,896,0.22530,1
31031,-16,0.23364,33368,1553,0.42054,1
31239,208,0.25719,32535,-833,0.31582,1
31303,64,0.26443,33000,465,0.37428,1
31479,176,0.28436,33432,432,0.42859,1
31687,208,0.30790,33800,368,0.47486,1
31703,16,0.30971,33752,-48,0.46882,1
32039,336,0.34775,33944,192,0.49296,1
32215,176,0.36767,33912,-32,0.48894,1
32247,32,0.37129,33848,-64,0.48089,1
31751,-496,0.31515,34168,320,0.52112,1
31367,-384,0.27168,34120,-48,0.51509,1
31687,320,0.30790,34600,480,0.57543,1
31703,16,0.30971,35800,1200,0.72630,1
31575,-128,0.29522,36472,672,0.81079,1
31575,0,0.29522,36808,336,0.85303,1
32295,720,0.37673,36280,-528,0.78665,1
32087,-208,0.35318,35464,-816,0.68406,1
33352,1265,0.49638,34808,-656,0.60158,1
33672,320,0.53260,34088,-720,0.51106,1
33768,96,0.54347,33784,-304,0.47284,1
34120,352,0.58331,33288,-496,0.41049,1
33176,-944,0.47645,32023,-1265,0.25145,1
31927,-1249,0.33507,31991,-32,0.24742,1
31127,-800,0.24451,32087,96,0.25949,1
30775,-352,0.20466,31991,-96,0.24742,1
30887,112,0.21734,32151,160,0.26754,1
31111,224,0.24270,32695,544,0.33593,1
31191,80,0.25175,33480,785,0.43462,1
31447,256,0.28073,34616,1136,0.57745,1
32055,608,0.34956,35848,1232,0.73234,1
32679,624,0.42019,36328,480,0.79268,1
32247,-432,0.37129,35928,-400,0.74239,1
32407,160,0.38940,36280,352,0.78665,1
32583,176,0.40933,35384,-896,0.67400,1
32327,-256,0.38035,35432,48,0.68004,1
32135,-192,0.35861,36264,832,0.78464,1
31847,-288,0.32601,36408,144,0.80274,1
32215,368,0.36767,36584,176,0.82487,1
33528,1313,0.51630,36744,160,0.84498,1
35416,1888,0.73002,35576,-1168,0.69814,1
36552,1136,0.85861,34616,-960,0.57745,1
37801,1249,1.00000,35512,896,0.69009,1
37449,-352,0.96015,36456,944,0.80878,1
36504,-945,0.85318,37193,737,0.90143,1
33720,-2784,0.53803,36168,-1025,0.77257,1
30343,-3377,0.15576,34488,-1680,0.56135,1
29063,-1280,0.01087,32231,-2257,0.27760,1
28967,-96,0.00000,32391,160,0.29771,1
29207,240,0.02717,32952,561,0.36824,1
30103,896,0.12859,33896,944,0.48692,1
29863,-240,0.10143,34344,448,0.54325,1
30231,368,0.14308,33976,-368,0.49698,1
30503,272,0.17387,33720,-256,0.46480,1
30087,-416,0.12678,33288,-432,0.41049,1
30999,912,0.23002,33112,-176,0.38836,1
32359,1360,0.38397,32872,-240,0.35818,1
32375,16,0.38578,32487,-385,0.30978,1
33288,913,0.48913,31687,-800,0.20920,1
33208,-80,0.48008,32583,896,0.32185,1
32663,-545,0.41838,32343,-240,0.29168,1
32391,-272,0.38759,31303,-1040,0.16093,1
31991,-400,0.34231,30567,-736,0.06839,1
32103,112,0.35499,31319,752,0.16294,1
32311,208,0.37854,31975,656,0.24541,1
32631,320,0.41476,32183,208,0.27156,1
32119,-512,0.35680,31975,-208,0.24541,1
31607,-512,0.29885,31815,-160,0.22530,1
31015,-592,0.23183,31303,-512,0.16093,1
30519,-496,0.17568,31127,-176,0.13880,1
31255,736,0.25900,31239,112,0.15288,1
31063,-192,0.23727,31399,160,0.17299,1
31351,288,0.26987,31655,256,0.20518,1
31351,0,0.26987,31767,112,0.21926,1
31175,-176,0.24994,31495,-272,0.18506,1
31143,-32,0.24632,31399,-96,0.17299,1
30983,-160,0.22821,31319,-80,0.16294,1
30695,-288,0.19561,30967,-352,0.11868,1
30487,-208,0.17206,31255,288,0.15489,1
30967,480,0.22640,31895,640,0.23535,1
31527,560,0.28979,31975,80,0.24541,1
31479,-48,0.28436,32423,448,0.30173,1
31207,-272,0.25357,32199,-224,0.27357,1
31607,400,0.29885,32311,112,0.28765,1
31927,320,0.33507,32103,-208,0.26150,1
31911,-16,0.33326,32519,416,0.31380,1
31047,-864,0.23545,32279,-240,0.28363,1
31143,96,0.24632,31031,-1248,0.12673,1
30871,-272,0.21553,30967,-64,0.11868,1
30919,48,0.22096,31095,128,0.13477,1
31047,128,0.23545,31271,176,0.15690,1
30823,-224,0.21010,31079,-192,0.13276,1
32327,1504,0.38035,31063,-16,0.13075,1
31687,-640,0.30790,31335,272,0.16495,1
31511,-176,0.28798,32183,848,0.27156,1
31271,-240,0.26081,32407,224,0.29972,1
31159,-112,0.24813,33048,641,0.38031,1
31639,480,0.30247,33160,112,0.39439,1
31399,-240,0.27530,32840,-320,0.35416,1
32007,608,0.34412,32487,-353,0.30978,1
32247,240,0.37129,32343,-144,0.29168,1
32663,416,0.41838,32679,336,0.33392,1
32583,-80,0.40933,32199,-480,0.27357,1
32551,-32,0.40571,32792,593,0.34813,1
32503,-48,0.40027,33048,256,0.38031,1
32007,-496,0.34412,33352,304,0.41853,1
32936,929,0.44929,33544,192,0.44267,1
32952,16,0.45110,33400,-144,0.42457,1
32231,-721,0.36948,32727,-673,0.33995,1
32583,352,0.40933,32968,241,0.37025,1
32808,225,0.43480,33160,192,0.39439,1
32343,-465,0.38216,33096,-64,0.38635,1
32343,0,0.38216,33496,400,0.43664,1
32920,577,0.44748,34040,544,0.50503,1
33560,640,0.51992,34232,192,0.52917,1
33768,208,0.54347,33544,-688,0.44267,1
33496,-272,0.51268,32663,-881,0.33191,1
33048,-448,0.46197,32247,-416,0.27961,1
33864,816,0.55434,32663,416,0.33191,1
33496,-368,0.51268,32727,64,0.33995,1
32647,-849,0.41657,32727,0,0.33995,1
32023,-624,0.34594,33208,481,0.40043,1
30919,-1104,0.22096,34232,1024,0.52917,1
31575,656,0.29522,33320,-912,0.41451,1
31431,-144,0.27892,32615,-705,0.32587,1
32695,1264,0.42201,32583,-32,0.32185,1
33352,657,0.49638,33112,529,0.38836,1
33480,128,0.51087,33256,144,0.40646,1
33464,-16,0.50906,33080,-176,0.38433,1
32535,-929,0.40389,32551,-529,0.31783,1
31799,-736,0.32058,32327,-224,0.28967,1
31239,-560,0.25719,32615,288,0.32587,1
31335,96,0.26806,33096,481,0.38635,1
31271,-64,0.26081,33688,592,0.46077,1
30535,-736,0.17750,33768,80,0.47083,1
31383,848,0.27349,33352,-416,0.41853,1
31607,224,0.29885,32631,-721,0.32789,1
31783,176,0.31877,32215,-416,0.27558,1
31895,112,0.33145,32247,32,0.27961,1
32391,496,0.38759,32808,561,0.35014,1
32439,48,0.39303,33560,752,0.44468,1
33240,801,0.48370,34984,1424,0.62371,1
33592,352,0.52355,35288,304,0.66193,1
33944,352,0.56339,35336,48,0.66797,1
34344,400,0.60867,33832,-1504,0.47888,1
33768,-576,0.54347,33192,-640,0.39842,1
33256,-512,0.48551,33048,-144,0.38031,1
32968,-288,0.45291,32840,-208,0.35416,1
32247,-721,0.37129,32263,-577,0.28162,1
31575,-672,0.29522,31463,-800,0.18104,1
31655,80,0.30428,32679,1216,0.33392,1
31415,-240,0.27711,33416,737,0.42658,1
31607,192,0.29885,33768,352,0.47083,1
31751,144,0.31515,33976,208,0.49698,1
31511,-240,0.28798,33448,-528,0.43060,1
31319,-192,0.26624,32407,-1041,0.29972,1
31303,-16,0.26443,31591,-816,0.19713,1
31431,128,0.27892,31591,0,0.19713,1
31175,-256,0.24994,31479,-112,0.18305,1
31687,512,0.30790,32263,784,0.28162,1
31879,192,0.32964,32535,272,0.31582,1
32103,224,0.35499,32631,96,0.32789,1
32135,32,0.35861,32679,48,0.33392,1
32663,528,0.41838,32679,0,0.33392,1
32856,193,0.44023,33128,449,0.39037,1
32808,-48,0.43480,33160,32,0.39439,1
32856,48,0.44023,32888,-272,0.36020,1
32968,112,0.45291,33096,208,0.38635,1
32679,-289,0.42019,33368,272,0.42054,1
32776,97,0.43117,33496,128,0.43664,1
32792,16,0.43299,33784,288,0.47284,1
32583,-209,0.40933,34088,304,0.51106,1
32391,-192,0.38759,33544,-544,0.44267,1
32295,-96,0.37673,33736,192,0.46681,1
32407,112,0.38940,32631,-1105,0.32789,1
32359,-48,0.38397,33064,433,0.38232,1
32471,112,0.39665,32487,-577,0.30978,1
32647,176,0.41657,32551,64,0.31783,1
32455,-192,0.39484,32471,-80,0.30777,1
31959,-496,0.33869,32055,-416,0.25547,1
31783,-176,0.31877,32007,-48,0.24943,1
31927,144,0.33507,32327,320,0.28967,1
32503,576,0.40027,32840,513,0.35416,1
33384,881,0.50000,33160,320,0.39439,1
33960,576,0.56520,33144,-16,0.39238,1
33960,0,0.56520,32904,-240,0.36221,1
33992,32,0.56883,32856,-48,0.35617,1
33912,-80,0.55977,32872,16,0.35818,1
34360,448,0.61048,32711,-161,0.33794,1
33752,-608,0.54166,32311,-400,0.28765,1
33320,-432,0.49276,31127,-1184,0.13880,1
33304,-16,0.49094,32007,880,0.24943,1
33224,-80,0.48189,32231,224,0.27760,1
33112,-112,0.46921,32407,176,0.29972,1
33384,272,0.50000,32471,64,0.30777,1
32872,-512,0.44204,32727,256,0.33995,1
32151,-721,0.36043,32824,97,0.35215,1
31671,-480,0.30609,32856,32,0.35617,1
31799,128,0.32058,33192,336,0.39842,1
32311,512,0.37854,33736,544,0.46681,1
32263,-48,0.37310,33672,-64,0.45876,1
32327,64,0.38035,33384,-288,0.42255,1
32343,16,0.38216,32583,-801,0.32185,1
32263,-80,0.37310,32968,385,0.37025,1
32087,-176,0.35318,33080,112,0.38433,1
31815,-272,0.32239,33112,32,0.38836,1
31879,64,0.32964,32840,-272,0.35416,1
32167,288,0.36224,32599,-241,0.32386,1
32599,432,0.41114,32423,-176,0.30173,1
32776,177,0.43117,32263,-160,0.28162,1
33016,240,0.45834,32375,112,0.29570,1
33240,224,0.48370,32615,240,0.32587,1
33368,128,0.49819,32519,-96,0.31380,1
33688,320,0.53441,32247,-272,0.27961,1
34136,448,0.58513,32423,176,0.30173,1
34040,-96,0.57426,32055,-368,0.25547,1
33624,-416,0.52717,31943,-112,0.24139,1
32888,-736,0.44385,31591,-352,0.19713,1
32023,-865,0.34594,32119,528,0.26352,1
32151,128,0.36043,32135,16,0.26553,1
32391,240,0.38759,32327,192,0.28967,1
32359,-32,0.38397,32840,513,0.35416,1
31703,-656,0.30971,33192,352,0.39842,1
32215,512,0.36767,33464,272,0.43261,1
32087,-128,0.35318,33576,112,0.44669,1
32215,128,0.36767,33512,-64,0.43865,1
32039,-176,0.34775,33208,-304,0.40043,1
32455,416,0.39484,32599,-609,0.32386,1
32151,-304,0.36043,32663,64,0.33191,1
32391,240,0.38759,32856,193,0.35617,1
32247,-144,0.37129,32776,-80,0.34612,1
32519,272,0.40208,32856,80,0.35617,1
31911,-608,0.33326,31847,-1009,0.22932,1
31943,32,0.33688,32583,736,0.32185,1
31927,-16,0.33507,32792,209,0.34813,1
31895,-32,0.33145,32840,48,0.35416,1
32103,208,0.35499,32872,32,0.35818,1
32263,160,0.37310,32872,0,0.35818,1
32455,192,0.39484,32856,-16,0.35617,1
32391,-64,0.38759,33416,560,0.42658,1
32407,16,0.38940,34344,928,0.54325,1
32295,-112,0.37673,34344,0,0.54325,1
32103,-192,0.35499,34008,-336,0.50101,1
32391,288,0.38759,33512,-496,0.43865,1
32840,449,0.43842,33032,-480,0.37830,1
32808,-32,0.43480,32391,-641,0.29771,1
33032,224,0.46015,32327,-64,0.28967,1
32263,-769,0.37310,31623,-704,0.20116,1
33192,929,0.47827,32647,1024,0.32990,1
33432,240,0.50543,32551,-96,0.31783,1
32727,-705,0.42563,32343,-208,0.29168,1
32407,-320,0.38940,32167,-176,0.26955,1
32599,192,0.41114,32776,609,0.34612,1
32087,-512,0.35318,32519,-257,0.31380,1
31783,-304,0.31877,32808,289,0.35014,1
31639,-144,0.30247,33064,256,0.38232,1
31431,-208,0.27892,33064,0,0.38232,1
32183,752,0.36405,32824,-240,0.35215,1
31975,-208,0.34050,32439,-385,0.30375,1
31895,-80,0.33145,33112,673,0.38836,1
31127,-768,0.24451,32375,-737,0.29570,1
31847,720,0.32601,32375,0,0.29570,1
31847,0,0.32601,32343,-32,0.29168,1
31703,-144,0.30971,32135,-208,0.26553,1
32183,480,0.36405,32519,384,0.31380,1
32295,112,0.37673,32679,160,0.33392,1
32295,0,0.37673,32776,97,0.34612,1
32776,481,0.43117,32856,80,0.35617,1
32471,-305,0.39665,32567,-289,0.31984,1
32263,-208,0.37310,32535,-32,0.31582,1
32087,-176,0.35318,32679,144,0.33392,1
31447,-640,0.28073,32711,32,0.33794,1
32263,816,0.37310,32455,-256,0.30576,1
32583,320,0.40933,32247,-208,0.27961,1
32776,193,0.43117,33064,817,0.38232,1
32471,-305,0.39665,31879,-1185,0.23334,1
32343,-128,0.38216,32343,464,0.29168,1
32263,-80,0.37310,32327,-16,0.28967,1
32279,16,0.37492,32711,384,0.33794,1
32407,128,0.38940,33240,529,0.40445,1
32487,80,0.39846,33320,80,0.41451,1
32471,-16,0.39665,33032,-288,0.37830,1
32904,433,0.44566,32567,-465,0.31984,1
32936,32,0.44929,32231,-336,0.27760,1
33416,480,0.50362,32183,-48,0.27156,1
34360,944,0.61048,32263,80,0.28162,1
35144,784,0.69923,32087,-176,0.25949,1
34728,-416,0.65214,32055,-32,0.25547,1
33288,-1440,0.48913,31959,-96,0.24340,1
32936,-352,0.44929,32407,448,0.29972,1
31511,-1425,0.28798,32487,80,0.30978,1
31319,-192,0.26624,33240,753,0.40445,1
30711,-608,0.19742,33336,96,0.41652,1
31063,352,0.23727,34024,688,0.50302,1
31959,896,0.33869,33304,-720,0.41250,1
32583,624,0.40933,33800,496,0.47486,1
32535,-48,0.40389,33800,0,0.47486,1
32439,-96,0.39303,33832,32,0.47888,1
32055,-384,0.34956,33272,-560,0.40847,1
32263,208,0.37310,32551,-721,0.31783,1
30855,-1408,0.21372,32455,-96,0.30576,1
31639,784,0.30247,31959,-496,0.24340,1
31623,-16,0.30066,33336,1377,0.41652,1
31591,-32,0.29703,32503,-833,0.31179,1
32279,688,0.37492,32231,-272,0.27760,1
31623,-656,0.30066,31895,-336,0.23535,1
31879,256,0.32964,31943,48,0.24139,1
32247,368,0.37129,32567,624,0.31984,1
32295,48,0.37673,32599,32,0.32386,1
32647,352,0.41657,32599,0,0.32386,1
32968,321,0.45291,32776,177,0.34612,1
33512,544,0.51449,33080,304,0.38433,1
33752,240,0.54166,33256,176,0.40646,1
33640,-112,0.52898,33208,-48,0.40043,1
33976,336,0.56701,33800,592,0.47486,1
33032,-944,0.46015,33976,176,0.49698,1
32583,-449,0.40933,33768,-208,0.47083,1
32215,-368,0.36767,33512,-256,0.43865,1
31559,-656,0.29341,32856,-656,0.35617,1
32023,464,0.34594,32904,48,0.36221,1
32455,432,0.39484,32519,-385,0.31380,1
32631,176,0.41476,32327,-192,0.28967,1
32776,145,0.43117,32263,-64,0.28162,1
32872,96,0.44204,32503,240,0.31179,1
33208,336,0.48008,33032,529,0.37830,1
32872,-336,0.44204,33576,544,0.44669,1
32119,-753,0.35680,33960,384,0.49497,1
31799,-320,0.32058,33976,16,0.49698,1
31527,-272,0.28979,33416,-560,0.42658,1
31639,112,0.30247,33048,-368,0.38031,1
31767,128,0.31696,32952,-96,0.36824,1
32535,768,0.40389,32343,-609,0.29168,1
33144,609,0.47283,31879,-464,0.23334,1
31159,0,0.35455,33880,0,0.58004,0
32824,1665,0.46147,33784,-96,0.57360,0
34200,1376,0.54983,35064,1280,0.65951,0
34968,768,0.59915,35592,528,0.69495,0
35144,176,0.61045,36568,976,0.76045,0
34024,-1120,0.53853,36200,-368,0.73575,0
32423,-1601,0.43572,35672,-528,0.70032,0
30647,-1776,0.32167,35640,-32,0.69817,0
28406,-2241,0.17775,36776,1136,0.77441,0
25718,-2688,0.00514,37097,321,0.79596,0
25638,-80,0.00000,36840,-257,0.77871,0
27286,1648,0.10583,36120,-720,0.73038,0
29431,2145,0.24358,34600,-1520,0.62836,0
31559,2128,0.38023,33912,-688,0.58219,0
32695,1136,0.45319,34472,560,0.61977,0
32856,161,0.46352,35128,656,0.66380,0
32599,-257,0.44702,35656,528,0.69924,0
33240,641,0.48818,36648,992,0.76582,0
33368,128,0.49640,36889,241,0.78200,0
33384,16,0.49743,36520,-369,0.75723,0
33160,-224,0.48305,36184,-336,0.73468,0
31847,-1313,0.39873,34776,-1408,0.64018,0
31111,-736,0.35146,33176,-1600,0.53279,0
30455,-656,0.30934,31735,-1441,0.43607,0
30215,-240,0.29392,30023,-1712,0.32116,0
30631,416,0.32064,29735,-288,0.30183,0
31111,480,0.35146,30583,848,0.35875,0
30887,-224,0.33708,31847,1264,0.44359,0
31287,400,0.36277,33512,1665,0.55534,0
32711,1424,0.45421,34664,1152,0.63266,0
33288,577,0.49127,35272,608,0.67347,0
33560,272,0.50873,35432,160,0.68421,0
34264,704,0.55394,36152,720,0.73253,0
34824,560,0.58990,36808,656,0.77656,0
34984,160,0.60018,36488,-320,0.75508,0
34568,-416,0.57347,35720,-768,0.70354,0
33496,-1072,0.50462,34776,-944,0.64018,0
32679,-817,0.45216,34104,-672,0.59507,0
32840,161,0.46250,33608,-496,0.56178,0
33496,656,0.50462,33224,-384,0.53601,0
33272,-224,0.49024,31671,-1553,0.43177,0
32856,-416,0.46352,29735,-1936,0.30183,0
32551,-305,0.44394,30599,864,0.35982,0
32567,16,0.44497,31879,1280,0.44573,0
32567,0,0.44497,32952,1073,0.51775,0
32695,128,0.45319,33560,608,0.55856,0
33112,417,0.47996,34728,1168,0.63696,0
32872,-240,0.46455,34968,240,0.65306,0
32904,32,0.46661,34728,-240,0.63696,0
33784,880,0.52312,34712,-16,0.63588,0
34600,816,0.57552,34056,-656,0.59185,0
34584,-16,0.57449,33256,-800,0.53816,0
34312,-272,0.55703,32423,-833,0.48225,0
33144,-1168,0.48202,32647,224,0.49728,0
32920,-224,0.46763,33832,1185,0.57682,0
32952,32,0.46969,33304,-528,0.54138,0
32840,-112,0.46250,32984,-320,0.51990,0
33192,352,0.48510,32071,-913,0.45862,0
33656,464,0.51490,31447,-624,0.41674,0
35224,1568,0.61559,30903,-544,0.38023,0
35496,272,0.63306,31271,368,0.40493,0
36873,1377,0.72149,29543,-1728,0.28895,0
39385,2512,0.88280,27814,-1729,0.17290,0
41210,1825,1.00000,26070,-1744,0.05584,0
40905,-305,0.98041,25238,-832,0.00000,0
39113,-1792,0.86534,26934,1696,0.11383,0
36248,-2865,0.68135,30295,3361,0.33942,0
32407,-3841,0.43469,34984,4689,0.65414,0
29831,-2576,0.26927,37801,2817,0.84321,0
28679,-1152,0.19529,38729,928,0.90550,0
29111,432,0.22303,37945,-784,0.85288,0
29303,192,0.23536,35864,-2081,0.71320,0
30391,1088,0.30523,34536,-1328,0.62407,0
30007,-384,0.28057,32647,-1889,0.49728,0
31063,1056,0.34838,31847,-800,0.44359,0
31047,-16,0.34735,31479,-368,0.41889,0
30727,-320,0.32680,30599,-880,0.35982,0
30471,-256,0.31036,30807,208,0.37378,0
30455,-16,0.30934,31335,528,0.40922,0
30679,224,0.32372,33304,1969,0.54138,0
31111,432,0.35146,34936,1632,0.65092,0
31831,720,0.39770,35912,976,0.71642,0
32567,736,0.44497,36440,528,0.75186,0
34872,2305,0.59299,36664,224,0.76690,0
36232,1360,0.68032,35608,-1056,0.69602,0
37097,865,0.73587,33960,-1648,0.58541,0
36760,-337,0.71423,31575,-2385,0.42533,0
37465,705,0.75950,29623,-1952,0.29432,0
35640,-1825,0.64231,29559,-64,0.29002,0
33688,-1952,0.51695,31783,2224,0.43929,0
32119,-1569,0.41620,34136,2353,0.59722,0
31095,-1024,0.35044,35816,1680,0.70998,0
31079,-16,0.34941,36889,1073,0.78200,0
31911,832,0.40284,37689,800,0.83569,0
32023,112,0.41003,36744,-945,0.77227,0
32808,785,0.46044,35464,-1280,0.68635,0
33416,608,0.49949,34216,-1248,0.60259,0
33288,-128,0.49127,33320,-896,0.54245,0
32695,-593,0.45319,32263,-1057,0.47151,0
31431,-1264,0.37201,31911,-352,0.44788,0
30535,-896,0.31447,31719,-192,0.43500,0
30695,160,0.32475,33752,2033,0.57145,0
31287,592,0.36277,33944,192,0.58433,0
31959,672,0.40592,34296,352,0.60796,0
33176,1217,0.48407,34728,432,0.63696,0
34088,912,0.54264,35352,624,0.67884,0
34056,-32,0.54059,35384,32,0.68099,0
33576,-480,0.50976,35864,480,0.71320,0
33944,368,0.53339,37193,1329,0.80240,0
34232,288,0.55189,38425,1232,0.88509,0
35288,1056,0.61970,39993,1568,0.99033,0
37417,2129,0.75642,40105,112,0.99785,0
39497,2080,0.88999,39113,-992,0.93127,0
40393,896,0.94753,36712,-2401,0.77012,0
39993,-400,0.92185,35480,-1232,0.68743,0
38361,-1632,0.81704,33944,-1536,0.58433,0
37625,-736,0.76978,32135,-1809,0.46292,0
38441,816,0.82218,31047,-1088,0.38989,0
37657,-784,0.77183,30039,-1008,0.32224,0
35912,-1745,0.65977,29415,-624,0.28035,0
34344,-1568,0.55908,30327,912,0.34157,0
32295,-2049,0.42750,29591,-736,0.29217,0
30951,-1344,0.34119,28791,-800,0.23847,0
30167,-784,0.29084,29079,288,0.25780,0
28919,-1248,0.21070,29671,592,0.29754,0
29719,800,0.26207,31159,1488,0.39741,0
29911,192,0.27440,32199,1040,0.46721,0
29815,-96,0.26824,32840,641,0.51024,0
29479,-336,0.24666,33128,288,0.52957,0
29799,320,0.26721,33560,432,0.55856,0
30647,848,0.32167,33896,336,0.58111,0
31223,576,0.35866,34120,224,0.59615,0
31495,272,0.37612,35048,928,0.65843,0
31559,64,0.38023,35064,16,0.65951,0
31671,112,0.38743,35400,336,0.68206,0
31911,240,0.40284,36104,704,0.72931,0
31863,-48,0.39976,36264,160,0.74005,0
31815,-48,0.39667,37001,737,0.78952,0
31991,176,0.40798,38041,1040,0.85932,0
32535,544,0.44291,38441,400,0.88617,0
33032,497,0.47483,37961,-480,0.85395,0
33768,736,0.52209,37257,-704,0.80670,0
34392,624,0.56216,36296,-961,0.74220,0
34952,560,0.59812,34392,-1904,0.61440,0
35256,304,0.61765,31975,-2417,0.45218,0
34712,-544,0.58271,30567,-1408,0.35768,0
35480,768,0.63203,30199,-368,0.33298,0
34904,-576,0.59504,30807,608,0.37378,0
33880,-1024,0.52928,31431,624,0.41567,0
35864,1984,0.65669,30087,-1344,0.32546,0
34824,-1040,0.58990,29783,-304,0.30505,0
31687,-3137,0.38845,30887,1104,0.37915,0
29415,-2272,0.24255,32295,1408,0.47366,0
29367,-48,0.23947,30951,-1344,0.38345,0
29143,-224,0.22508,31159,208,0.39741,0
28983,-160,0.21481,32984,1825,0.51990,0
28935,-48,0.21173,34008,1024,0.58863,0
29319,384,0.23639,34520,512,0.62299,0
29895,576,0.27338,34728,208,0.63696,0
30119,224,0.28776,35672,944,0.70032,0
30423,304,0.30728,37705,2033,0.83677,0
30839,416,0.33400,37401,-304,0.81636,0
31159,320,0.35455,37689,288,0.83569,0
31719,560,0.39051,38041,352,0.85932,0
32663,944,0.45113,39385,1344,0.94953,0
33048,385,0.47585,40121,736,0.99893,0
32599,-449,0.44702,39961,-160,0.98819,0
32535,-64,0.44291,40137,176,1.00000,0
33864,1329,0.52826,37785,-2352,0.84214,0
34440,576,0.56525,37257,-528,0.80670,0
35224,784,0.61559,36568,-689,0.76045,0
35960,736,0.66286,35176,-1392,0.66702,0
36520,560,0.69882,35864,688,0.71320,0
36953,433,0.72662,36921,1057,0.78415,0
37625,672,0.76978,35944,-977,0.71857,0
37577,-48,0.76670,34792,-1152,0.64125,0
37081,-496,0.73484,34696,-96,0.63481,0
36136,-945,0.67416,34648,-48,0.63159,0
35736,-400,0.64847,33992,-656,0.58756,0
35144,-592,0.61045,33528,-464,0.55641,0
33960,-1184,0.53442,32519,-1009,0.48869,0
32840,-1120,0.46250,31559,-960,0.42426,0
31687,-1153,0.38845,29831,-1728,0.30828,0
30615,-1072,0.31961,29079,-752,0.25780,0
29447,-1168,0.24461,30439,1360,0.34908,0
29815,368,0.26824,31271,832,0.40493,0
30887,1072,0.33708,32535,1264,0.48976,0
31927,1040,0.40387,33256,721,0.53816,0
32711,784,0.45421,33880,624,0.58004,0
32952,241,0.46969,34840,960,0.64447,0
31751,-1201,0.39256,34808,-32,0.64232,0
31495,-256,0.37612,36152,1344,0.73253,0
31095,-400,0.35044,35880,-272,0.71428,0
31063,-32,0.34838,35768,-112,0.70676,0
31543,480,0.37921,37049,1281,0.79274,0
32103,560,0.41517,36969,-80,0.78737,0
33272,1169,0.49024,36296,-673,0.74220,0
34360,1088,0.56011,35224,-1072,0.67025,0
35656,1296,0.64333,34712,-512,0.63588,0
36776,1120,0.71526,33912,-800,0.58219,0
37641,865,0.77081,32695,-1217,0.50050,0
38137,496,0.80266,34152,1457,0.59830,0
36680,-1457,0.70909,35208,1056,0.66917,0
34264,-2416,0.55394,36136,928,0.73146,0
32808,-1456,0.46044,36328,192,0.74435,0
32071,-737,0.41311,36744,416,0.77227,0
31959,-112,0.40592,36472,-272,0.75401,0
32279,320,0.42647,35928,-544,0.71750,0
32215,-64,0.42236,35672,-256,0.70032,0
32151,-64,0.41825,35272,-400,0.67347,0
32071,-80,0.41311,34104,-1168,0.59507,0
33368,1297,0.49640,33064,-1040,0.52527,0
33992,624,0.53648,32023,-1041,0.45540,0
33800,-192,0.52415,31719,-304,0.43500,0
33224,-576,0.48716,32247,528,0.47043,0
33304,80,0.49229,32535,288,0.48976,0
33480,176,0.50360,32583,48,0.49299,0
33304,-176,0.49229,32279,-304,0.47258,0
32423,-881,0.43572,32471,192,0.48547,0
31639,-784,0.38537,33544,1073,0.55749,0
31511,-128,0.37715,34184,640,0.60044,0
31607,96,0.38332,34984,800,0.65414,0
31703,96,0.38948,35800,816,0.70891,0
31927,224,0.40387,35672,-128,0.70032,0
32968,1041,0.47072,35304,-368,0.67562,0
33928,960,0.53237,34056,-1248,0.59185,0
34648,720,0.57860,34296,240,0.60796,0
36024,1376,0.66697,33688,-608,0.56715,0
35960,-64,0.66286,32920,-768,0.51561,0
36072,112,0.67005,32695,-225,0.50050,0
35448,-624,0.62998,33416,721,0.54890,0
34936,-512,0.59710,34376,960,0.61333,0
33928,-1008,0.53237,34472,96,0.61977,0
33656,-272,0.51490,33464,-1008,0.55212,0
32776,-880,0.45839,32487,-977,0.48654,0
31783,-993,0.39462,33560,1073,0.55856,0
31655,-128,0.38640,34536,976,0.62407,0
31783,128,0.39462,34520,-16,0.62299,0
32471,688,0.43880,34328,-192,0.61011,0
31383,-1088,0.36893,34888,560,0.64769,0
30295,-1088,0.29906,35048,160,0.65843,0
30471,176,0.31036,33736,-1312,0.57037,0
30967,496,0.34222,34280,544,0.60689,0
30583,-384,0.31756,34120,-160,0.59615,0
30631,48,0.32064,33688,-432,0.56715,0
30791,160,0.33091,33640,-48,0.56393,0
30903,112,0.33811,33704,64,0.56823,0
30855,-48,0.33502,33368,-336,0.54567,0
30935,80,0.34016,33048,-320,0.52420,0
31303,368,0.36379,33544,496,0.55749,0
31463,160,0.37407,34024,480,0.58970,0
31927,464,0.40387,34536,512,0.62407,0
31847,-80,0.39873,34952,416,0.65199,0
31127,-720,0.35249,35480,528,0.68743,0
31543,416,0.37921,36072,592,0.72716,0
32904,1361,0.46661,36280,208,0.74112,0
33880,976,0.52928,36008,-272,0.72287,0
34328,448,0.55805,36232,224,0.73790,0
34344,16,0.55908,35560,-672,0.69280,0
33720,-624,0.51901,34280,-1280,0.60689,0
33768,48,0.52209,33320,-960,0.54245,0
34488,720,0.56833,33368,48,0.54567,0
34968,480,0.59915,33112,-256,0.52849,0
35144,176,0.61045,32904,-208,0.51453,0
34696,-448,0.58169,32679,-225,0.49943,0
33896,-800,0.53031,32551,-128,0.49084,0
33208,-688,0.48613,32247,-304,0.47043,0
32487,-721,0.43983,31815,-432,0.44144,0
32279,-208,0.42647,31879,64,0.44573,0
31991,-288,0.40798,31447,-432,0.41674,0
30871,-1120,0.33605,31415,-32,0.41459,0
30039,-832,0.28262,31975,560,0.45218,0
30023,-16,0.28160,32776,801,0.50594,0
30695,672,0.32475,33816,1040,0.57574,0
30871,176,0.33605,34392,576,0.61440,0
31255,384,0.36071,34872,480,0.64662,0
31591,336,0.38229,35016,144,0.65629,0
31767,176,0.39359,34600,-416,0.62836,0
31671,-96,0.38743,34728,128,0.63696,0
31799,128,0.39565,35160,432,0.66595,0
32151,352,0.41825,35720,560,0.70354,0
32055,-96,0.41209,36360,640,0.74649,0
32343,288,0.43058,37513,1153,0.82388,0
32087,-256,0.41414,39113,1600,0.93127,0
33576,1489,0.50976,38025,-1088,0.85825,0
34440,864,0.56525,37353,-672,0.81314,0
34952,512,0.59812,36344,-1009,0.74542,0
34504,-448,0.56936,35336,-1008,0.67776,0
34968,464,0.59915,35208,-128,0.66917,0
35208,240,0.61456,35144,-64,0.66488,0
34984,-224,0.60018,34232,-912,0.60366,0
34136,-848,0.54572,34168,-64,0.59937,0
33512,-624,0.50565,33992,-176,0.58756,0
33624,112,0.51284,33016,-976,0.52205,0
33384,-240,0.49743,31351,-1665,0.41030,0
32936,-448,0.46866,30679,-672,0.36519,0
32711,-225,0.45421,29479,-1200,0.28465,0
31863,-848,0.39976,29735,256,0.30183,0
32647,784,0.45010,30119,384,0.32761,0
33224,577,0.48716,30423,304,0.34801,0
32936,-288,0.46866,30887,464,0.37915,0
33304,368,0.49229,31639,752,0.42963,0
33512,208,0.50565,32231,592,0.46936,0
33576,64,0.50976,31815,-416,0.44144,0
33512,-64,0.50565,31239,-576,0.40278,0
33224,-288,0.48716,31207,-32,0.40063,0
33144,-80,0.48202,31207,0,0.40063,0
32856,-288,0.46352,32391,1184,0.48010,0
32551,-305,0.44394,33048,657,0.52420,0
32695,144,0.45319,33784,736,0.57360,0
33128,433,0.48099,34504,720,0.62192,0
33944,816,0.53339,34568,64,0.62622,0
34840,896,0.59093,34200,-368,0.60152,0
36296,1456,0.68443,33688,-512,0.56715,0
38185,1889,0.80574,33480,-208,0.55319,0
38585,400,0.83143,32487,-993,0.48654,0
38873,288,0.84992,32920,433,0.51561,0
37961,-912,0.79136,33656,736,0.56500,0
36680,-1281,0.70909,34152,496,0.59830,0
35560,-1120,0.63717,33976,-176,0.58648,0
34872,-688,0.59299,33096,-880,0.52742,0
35912,1040,0.65977,31671,-1425,0.43177,0
36504,592,0.69779,31047,-624,0.38989,0
36905,401,0.72354,30935,-112,0.38237,0
35624,-1281,0.64128,31447,512,0.41674,0
33272,-2352,0.49024,32551,1104,0.49084,0
31543,-1729,0.37921,33672,1121,0.56608,0
31047,-496,0.34735,34408,736,0.61548,0
30663,-384,0.32269,34744,336,0.63803,0
31015,352,0.34530,34840,96,0.64447,0
32215,1200,0.42236,34792,-48,0.64125,0
32407,192,0.43469,33832,-960,0.57682,0
32679,272,0.45216,33656,-176,0.56500,0
32503,-176,0.44086,34088,432,0.59400,0
32663,160,0.45113,33560,-528,0.55856,0
31815,-848,0.39667,34072,512,0.59293,0
30167,-1648,0.29084,34824,752,0.64340,0
28695,-1472,0.19631,35896,1072,0.71535,0
28903,208,0.20967,36632,736,0.76475,0
29655,752,0.25796,36376,-256,0.74757,0
30231,576,0.29495,36456,80,0.75294,0
30583,352,0.31756,36712,256,0.77012,0
31399,816,0.36996,35720,-992,0.70354,0
32920,1521,0.46763,35256,-464,0.67239,0
33560,640,0.50873,33848,-1408,0.57789,0
33240,-320,0.48818,34424,576,0.61655,0
34136,896,0.54572,34392,-32,0.61440,0
33608,-528,0.51182,34280,-112,0.60689,0
34296,688,0.55600,34344,64,0.61118,0
34776,480,0.58682,34680,336,0.63373,0
33992,-784,0.53648,35560,880,0.69280,0
33544,-448,0.50771,34872,-688,0.64662,0
33832,288,0.52620,34760,-112,0.63910,0
33752,-80,0.52106,34040,-720,0.59078,0
34328,576,0.55805,33832,-208,0.57682,0
33800,-528,0.52415,32455,-1377,0.48439,0
33240,-560,0.48818,31495,-960,0.41996,0
33416,176,0.49949,29911,-1584,0.31365,0
33368,-48,0.49640,29399,-512,0.27928,0
33240,-128,0.48818,29111,-288,0.25995,0
32936,-304,0.46866,30775,1664,0.37164,0
32055,-881,0.41209,31591,816,0.42640,0
31767,-288,0.39359,32263,672,0.47151,0
32423,656,0.43572,33768,1505,0.57252,0
32551,128,0.44394,34024,256,0.58970,0
32888,337,0.46558,33784,-240,0.57360,0
33496,608,0.50462,34632,848,0.63051,0
34264,768,0.55394,34488,-144,0.62085,0
34328,64,0.55805,34008,-480,0.58863,0
34152,-176,0.54675,33480,-528,0.55319,0
33928,-224,0.53237,33832,352,0.57682,0
33608,-320,0.51182,33800,-32,0.57467,0
33480,-128,0.50360,33800,0,0.57467,0
34152,672,0.54675,34344,544,0.61118,0
34872,720,0.59299,34456,112,0.61870,0
35352,480,0.62381,34296,-160,0.60796,0
35752,400,0.64950,34488,192,0.62085,0
36120,368,0.67313,33592,-896,0.56071,0
36184,64,0.67724,33240,-352,0.53708,0
36648,464,0.70704,33176,-64,0.53279,0
36360,-288,0.68854,33688,512,0.56715,0
34472,-1888,0.56730,34248,560,0.60474,0
33656,-816,0.51490,34552,304,0.62514,0
33448,-208,0.50154,34872,320,0.64662,0
33000,-448,0.47277,34776,-96,0.64018,0
33464,464,0.50257,34520,-256,0.62299,0
34216,752,0.55086,34232,-288,0.60366,0
33640,-576,0.51387,34008,-224,0.58863,0
33528,-112,0.50668,33384,-624,0.54675,0
33672,144,0.51593,32455,-929,0.48439,0
33800,128,0.52415,32215,-240,0.46829,0
33944,144,0.53339,32343,128,0.47688,0
33736,-208,0.52004,31479,-864,0.41889,0
33800,64,0.52415,30295,-1184,0.33942,0
33368,-432,0.49640,29879,-416,0.31150,0
33224,-144,0.48716,29863,-16,0.31042,0
33064,-160,0.47688,30023,160,0.32116,0
33304,240,0.49229,31047,1024,0.38989,0
33144,-160,0.48202,31223,176,0.40170,0
32984,-160,0.47174,31399,176,0.41352,0
33816,832,0.52517,31591,192,0.42640,0
33240,-576,0.48818,31735,144,0.43607,0
33496,256,0.50462,31959,224,0.45110,0
33368,-128,0.49640,32247,288,0.47043,0
33528,160,0.50668,32359,112,0.47795,0
33672,144,0.51593,32663,304,0.49836,0
33944,272,0.53339,33320,657,0.54245,0
34408,464,0.56319,32231,-1089,0.46936,0
35000,592,0.60121,32359,128,0.47795,0
35384,384,0.62587,33336,977,0.54353,0
35784,400,0.65155,33704,368,0.56823,0
36440,656,0.69368,33752,48,0.57145,0
36056,-384,0.66902,34360,608,0.61226,0
34552,-1504,0.57244,35880,1520,0.71428,0
32615,-1937,0.44805,37849,1969,0.84643,0
31463,-1152,0.37407,38217,368,0.87113,0
31639,176,0.38537,37641,-576,0.83247,0
32135,496,0.41722,37385,-256,0.81529,0
32423,288,0.43572,37721,336,0.83784,0
31463,-960,0.37407,37513,-208,0.82388,0
33176,1713,0.48407,36856,-657,0.77978,0
34360,1184,0.56011,35144,-1712,0.66488,0
34616,256,0.57655,33224,-1920,0.53601,0
35336,720,0.62278,31879,-1345,0.44573,0
35672,336,0.64436,30407,-1472,0.34694,0
35384,-288,0.62587,29399,-1008,0.27928,0
35096,-288,0.60737,29527,128,0.28787,0
34088,-1008,0.54264,30183,656,0.33190,0
33000,-1088,0.47277,31671,1488,0.43177,0
32920,-80,0.46763,33288,1617,0.54030,0
32792,-128,0.45941,34104,816,0.59507,0
32631,-161,0.44908,34408,304,0.61548,0
32711,80,0.45421,35144,736,0.66488,0
33064,353,0.47688,36152,1008,0.73253,0
33048,-16,0.47585,36696,544,0.76904,0
33928,880,0.53237,36792,96,0.77549,0
35816,1888,0.65361,36856,64,0.77978,0
37593,1777,0.76772,35736,-1120,0.70461,0
39017,1424,0.85917,34248,-1488,0.60474,0
39289,272,0.87664,32247,-2001,0.47043,0
39033,-256,0.86020,30711,-1536,0.36734,0
37017,-2016,0.73073,30855,144,0.37701,0
34136,-2881,0.54572,32183,1328,0.46614,0
31671,-2465,0.38743,33448,1265,0.55104,0
30807,-864,0.33194,33640,192,0.56393,0
30775,-32,0.32989,33384,-256,0.54675,0
31431,656,0.37201,33240,-144,0.53708,0
31799,368,0.39565,32808,-432,0.50809,0
31383,-416,0.36893,32888,80,0.51346,0
31335,-48,0.36585,32824,-64,0.50916,0
32359,1024,0.43161,34248,1424,0.60474,0
33336,977,0.49435,33720,-528,0.56930,0
34072,736,0.54161,34152,432,0.59830,0
34600,528,0.57552,35416,1264,0.68313,0
34360,-240,0.56011,34728,-688,0.63696,0
34472,112,0.56730,34568,-160,0.62622,0
35400,928,0.62689,33864,-704,0.57896,0
35656,256,0.64333,33176,-688,0.53279,0
36088,432,0.67108,33064,-112,0.52527,0
34984,-1104,0.60018,34216,1152,0.60259,0
35144,160,0.61045,34056,-160,0.59185,0
34824,-320,0.58990,33992,-64,0.58756,0
34584,-240,0.57449,33192,-800,0.53386,0
34616,32,0.57655,33736,544,0.57037,0
34488,-128,0.56833,33112,-624,0.52849,0
34296,-192,0.55600,33016,-96,0.52205,0
33576,-720,0.50976,33560,544,0.55856,0
32279,-1297,0.42647,33608,48,0.56178,0
31671,-608,0.38743,33816,208,0.57574,0
32391,720,0.43366,34216,400,0.60259,0
31623,-768,0.38434,33480,-736,0.55319,0
31447,-176,0.37304,32007,-1473,0.45433,0
30919,-528,0.33913,32840,833,0.51024,0
31687,768,0.38845,33288,448,0.54030,0
32055,368,0.41209,34168,880,0.59937,0
31831,-224,0.39770,35032,864,0.65736,0
32055,224,0.41209,36392,1360,0.74864,0
32888,833,0.46558,37321,929,0.81099,0
33592,704,0.51079,37289,-32,0.80885,0
33688,96,0.51695,36824,-465,0.77764,0
33560,-128,0.50873,36360,-464,0.74649,0
34056,496,0.54059,35544,-816,0.69172,0
34728,672,0.58374,34904,-640,0.64877,0
35096,368,0.60737,33720,-1184,0.56930,0
35080,-16,0.60634,34488,768,0.62085,0
35016,-64,0.60223,34488,0,0.62085,0
36744,1728,0.71320,34184,-304,0.60044,0
35816,-928,0.65361,33240,-944,0.53708,0
34472,-1344,0.56730,33160,-80,0.53171,0
33912,-560,0.53134,32840,-320,0.51024,0
34104,192,0.54367,32007,-833,0.45433,0
33992,-112,0.53648,31463,-544,0.41781,0
33880,-112,0.52928,31239,-224,0.40278,0
34104,224,0.54367,31831,592,0.44251,0
34424,320,0.56422,32423,592,0.48225,0
34968,544,0.59915,32215,-208,0.46829,0
34776,-192,0.58682,31863,-352,0.44466,0
34008,-768,0.53750,32055,192,0.45755,0
33736,-272,0.52004,33096,1041,0.52742,0
33608,-128,0.51182,33112,16,0.52849,0
33864,0,0.54564,34936,0,0.50335,1
33704,-160,0.52391,34808,-128,0.49264,1
32872,-832,0.41089,34232,-576,0.44445,1
32087,-785,0.30427,33976,-256,0.42304,1
31831,-256,0.26949,34168,192,0.43910,1
32295,464,0.33252,34312,144,0.45115,1
32872,577,0.41089,34648,336,0.47925,1
33688,816,0.52173,34568,-80,0.47256,1
35272,1584,0.73689,34040,-528,0.42839,1
36408,1136,0.89120,31671,-2369,0.23022,1
36840,432,0.94988,30855,-816,0.16195,1
36680,-160,0.92814,30343,-512,0.11912,1
35592,-1088,0.78036,31623,1280,0.22620,1
33768,-1824,0.53260,32824,1201,0.32667,1
32007,-1761,0.29340,33288,464,0.36548,1
30599,-1408,0.10215,33624,336,0.39359,1
29895,-704,0.00652,33864,240,0.41367,1
30119,224,0.03695,34296,432,0.44981,1
30535,416,0.09345,34216,-80,0.44312,1
29847,-688,0.00000,33480,-736,0.38155,1
30615,768,0.10432,33016,-464,0.34273,1
30727,112,0.11953,32247,-769,0.27840,1
31095,368,0.16952,32103,-144,0.26635,1
31367,272,0.20647,31703,-400,0.23289,1
31431,64,0.21516,32631,928,0.31052,1
31815,384,0.26732,33480,849,0.38155,1
32279,464,0.33035,34056,576,0.42973,1
33224,945,0.45871,35192,1136,0.52476,1
34152,928,0.58476,35400,208,0.54216,1
35048,896,0.70647,35336,-64,0.53681,1
35640,592,0.78688,34456,-880,0.46319,1
36088,448,0.84773,33832,-624,0.41099,1
35960,-128,0.83035,32808,-1024,0.32533,1
35016,-944,0.70212,32936,128,0.33604,1
33816,-1200,0.53912,32984,48,0.34005,1
32631,-1185,0.37816,32087,-897,0.26502,1
31175,-1456,0.18039,31207,-880,0.19140,1
31415,240,0.21299,31575,368,0.22219,1
31527,112,0.22820,31719,144,0.23423,1
31223,-304,0.18691,31431,-288,0.21014,1
31943,720,0.28471,31239,-192,0.19408,1
31639,-304,0.24341,31591,352,0.22352,1
32583,944,0.37164,30967,-624,0.17132,1
33064,481,0.43697,31287,320,0.19809,1
33816,752,0.53912,31959,672,0.25431,1
34216,400,0.59345,31527,-432,0.21817,1
34136,-80,0.58259,31879,352,0.24762,1
33576,-560,0.50652,31271,-608,0.19675,1
33496,-80,0.49565,30519,-752,0.13385,1
33864,368,0.54564,30279,-240,0.11377,1
34904,1040,0.68691,30615,336,0.14188,1
35576,672,0.77819,30295,-320,0.11511,1
35576,0,0.77819,30023,-272,0.09235,1
36392,816,0.88902,29895,-128,0.08165,1
36905,513,0.95871,29783,-112,0.07228,1
36504,-401,0.90424,29463,-320,0.04551,1
35176,-1328,0.72385,29399,-64,0.04015,1
34712,-464,0.66083,28919,-480,0.00000,1
34312,-400,0.60649,29863,944,0.07897,1
34152,-160,0.58476,31415,1552,0.20880,1
34488,336,0.63040,32695,1280,0.31588,1
34632,144,0.64996,34024,1329,0.42705,1
34552,-80,0.63909,34968,944,0.50602,1
34952,400,0.69343,35496,528,0.55019,1
34664,-288,0.65431,35560,64,0.55555,1
35880,1216,0.81948,35336,-224,0.53681,1
35416,-464,0.75645,34520,-816,0.46855,1
35080,-336,0.71081,34584,64,0.47390,1
34072,-1008,0.57389,33928,-656,0.41902,1
33096,-976,0.44132,33448,-480,0.37887,1
32487,-609,0.35860,33016,-432,0.34273,1
32359,-128,0.34121,32695,-321,0.31588,1
31991,-368,0.29123,32263,-432,0.27974,1
31495,-496,0.22385,31767,-496,0.23825,1
31223,-272,0.18691,31767,0,0.23825,1
31287,64,0.19560,31895,128,0.24895,1
31543,256,0.23037,32263,368,0.27974,1
32071,528,0.30209,32471,208,0.29714,1
33128,1057,0.44567,32792,321,0.32399,1
33704,576,0.52391,32984,192,0.34005,1
33704,0,0.52391,33160,176,0.35478,1
33064,-640,0.43697,34024,864,0.42705,1
33320,256,0.47175,35544,1520,0.55421,1
33400,80,0.48261,36104,560,0.60105,1
33736,336,0.52825,36168,64,0.60641,1
33928,192,0.55433,36408,240,0.62648,1
33864,-64,0.54564,36328,-80,0.61979,1
33496,-368,0.49565,35608,-720,0.55956,1
33736,240,0.52825,34184,-1424,0.44044,1
33416,-320,0.48479,32888,-1296,0.33202,1
32824,-592,0.40437,32247,-641,0.27840,1
33160,336,0.45001,33432,1185,0.37753,1
33272,112,0.46523,33864,432,0.41367,1
33448,176,0.48913,33848,-16,0.41233,1
33496,48,0.49565,33784,-64,0.40698,1
33928,432,0.55433,33832,48,0.41099,1
34264,336,0.59997,33528,-304,0.38556,1
34104,-160,0.57824,32808,-720,0.32533,1
34184,80,0.58911,31975,-833,0.25565,1
34088,-96,0.57607,31591,-384,0.22352,1
34136,48,0.58259,32087,496,0.26502,1
34280,144,0.60215,32407,320,0.29179,1
34376,96,0.61519,32423,16,0.29312,1
34776,400,0.66952,32471,48,0.29714,1
34568,-208,0.64127,32471,0,0.29714,1
33800,-768,0.53695,32679,208,0.31454,1
34472,672,0.62823,32647,-32,0.31186,1
34360,-112,0.61301,32824,177,0.32667,1
33816,-544,0.53912,32904,80,0.33336,1
34312,496,0.60649,32920,16,0.33470,1
34312,0,0.60649,33080,160,0.34808,1
34088,-224,0.57607,33208,128,0.35879,1
33624,-464,0.51304,33064,-144,0.34675,1
33560,-64,0.50435,32952,-112,0.33738,1
33832,272,0.54129,32952,0,0.33738,1
34072,240,0.57389,32247,-705,0.27840,1
34136,64,0.58259,30423,-1824,0.12582,1
34696,560,0.65865,29847,-576,0.07763,1
35080,384,0.71081,29575,-272,0.05488,1
34600,-480,0.64561,30807,1232,0.15794,1
34216,-384,0.59345,31863,1056,0.24628,1
34312,96,0.60649,32952,1089,0.33738,1
34200,-112,0.59128,33592,640,0.39092,1
34280,80,0.60215,34232,640,0.44445,1
33704,-576,0.52391,33912,-320,0.41768,1
33720,16,0.52608,33528,-384,0.38556,1
33656,-64,0.51739,32311,-1217,0.28375,1
33688,32,0.52173,33128,817,0.35210,1
34216,528,0.59345,33496,368,0.38288,1
34104,-112,0.57824,33672,176,0.39761,1
34456,352,0.62605,33560,-112,0.38824,1
35176,720,0.72385,33016,-544,0.34273,1
36104,928,0.84990,32311,-705,0.28375,1
36520,416,0.90641,31639,-672,0.22754,1
35784,-736,0.80644,31143,-496,0.18605,1
35048,-736,0.70647,32087,944,0.26502,1
35288,240,0.73907,34056,1969,0.42973,1
34584,-704,0.64344,35752,1696,0.57161,1
34136,-448,0.58259,36776,1024,0.65727,1
33896,-240,0.54999,37177,401,0.69081,1
33896,0,0.54999,37465,288,0.71491,1
32920,-976,0.41741,36504,-961,0.63452,1
31895,-1025,0.27819,35032,-1472,0.51138,1
31623,-272,0.24124,34760,-272,0.48862,1
31799,176,0.26515,34648,-112,0.47925,1
32695,896,0.38685,34024,-624,0.42705,1
33272,577,0.46523,33928,-96,0.41902,1
34056,784,0.57172,34664,736,0.48059,1
35704,1648,0.79557,35400,736,0.54216,1
36937,1233,0.96305,36040,640,0.59570,1
37145,208,0.99131,35560,-480,0.55555,1
36921,-224,0.96088,33352,-2208,0.37084,1
36376,-545,0.88685,31495,-1857,0.21549,1
35416,-960,0.75645,30775,-720,0.15526,1
33752,-1664,0.53043,30407,-368,0.12448,1
33416,-336,0.48479,30359,-48,0.12046,1
33064,-352,0.43697,30711,352,0.14991,1
32647,-417,0.38033,31063,352,0.17935,1
32519,-128,0.36294,31735,672,0.23557,1
32359,-160,0.34121,32215,480,0.27572,1
32567,208,0.36946,32183,-32,0.27305,1
32776,209,0.39785,33000,817,0.34139,1
32375,-401,0.34338,32920,-80,0.33470,1
33464,1089,0.49131,33416,496,0.37619,1
33288,-176,0.46740,33128,-288,0.35210,1
33064,-224,0.43697,32984,-144,0.34005,1
33224,160,0.45871,33192,208,0.35745,1
33704,480,0.52391,33768,576,0.40564,1
34184,480,0.58911,34664,896,0.48059,1
34456,272,0.62605,34840,176,0.49532,1
35256,800,0.73472,35624,784,0.56090,1
34392,-864,0.61736,34344,-1280,0.45382,1
34232,-160,0.59563,34120,-224,0.43508,1
34488,256,0.63040,33752,-368,0.40430,1
34520,32,0.63475,33304,-448,0.36682,1
34472,-48,0.62823,32583,-721,0.30651,1
34440,-32,0.62388,32311,-272,0.28375,1
34696,256,0.65865,32039,-272,0.26100,1
34504,-192,0.63257,31895,-144,0.24895,1
34360,-144,0.61301,32327,432,0.28509,1
34552,192,0.63909,32904,577,0.33336,1
34568,16,0.64127,33304,400,0.36682,1
34552,-16,0.63909,33656,352,0.39627,1
34456,-96,0.62605,33576,-80,0.38958,1
34088,-368,0.57607,33672,96,0.39761,1
34600,512,0.64561,34152,480,0.43776,1
34584,-16,0.64344,34840,688,0.49532,1
34408,-176,0.61953,35720,880,0.56893,1
34344,-64,0.61084,35832,112,0.57830,1
34040,-304,0.56955,35464,-368,0.54752,1
34520,480,0.63475,35096,-368,0.51673,1
35080,560,0.71081,35432,336,0.54484,1
35192,112,0.72603,35144,-288,0.52075,1
35384,192,0.75211,35144,0,0.52075,1
35144,-240,0.71951,35272,128,0.53145,1
34584,-560,0.64344,34984,-288,0.50736,1
33992,-592,0.56303,35176,192,0.52342,1
33000,-992,0.42828,34792,-384,0.49130,1
33048,48,0.43480,35496,704,0.55019,1
33256,208,0.46305,35288,-208,0.53279,1
33512,256,0.49783,34216,-1072,0.44312,1
33592,80,0.50869,33512,-704,0.38422,1
34568,976,0.64127,33960,448,0.42170,1
34600,32,0.64561,33592,-368,0.39092,1
34984,384,0.69777,32968,-624,0.33872,1
35656,672,0.78905,32647,-321,0.31186,1
36104,448,0.84990,33480,833,0.38155,1
36600,496,0.91728,32872,-608,0.33068,1
37065,465,0.98044,32471,-401,0.29714,1
37209,144,1.00000,32423,-48,0.29312,1
36648,-561,0.92380,32776,353,0.32265,1
35736,-912,0.79992,32984,208,0.34005,1
34904,-832,0.68691,32840,-144,0.32801,1
33944,-960,0.55651,32535,-305,0.30249,1
33480,-464,0.49348,32695,160,0.31588,1
33736,256,0.52825,33064,369,0.34675,1
33416,-320,0.48479,34040,976,0.42839,1
32872,-544,0.41089,34552,512,0.47122,1
31831,-1041,0.26949,34120,-432,0.43508,1
30471,-1360,0.08476,32824,-1296,0.32667,1
31047,576,0.16300,32087,-737,0.26502,1
30759,-288,0.12388,32311,224,0.28375,1
31255,496,0.19125,32023,-288,0.25966,1
31655,400,0.24559,31159,-864,0.18738,1
32247,592,0.32600,31207,48,0.19140,1
32279,32,0.33035,31767,560,0.23825,1
32920,641,0.41741,31591,-176,0.22352,1
33432,512,0.48696,32679,1088,0.31454,1
34088,656,0.57607,33160,481,0.35478,1
34456,368,0.62605,33512,352,0.38422,1
34232,-224,0.59563,33512,0,0.38422,1
33032,-1200,0.43263,33384,-128,0.37352,1
32599,-433,0.37381,33128,-256,0.35210,1
32215,-384,0.32165,32263,-865,0.27974,1
32920,705,0.41741,32487,224,0.29848,1
32423,-497,0.34990,32231,-256,0.27706,1
32776,353,0.39785,32279,48,0.28108,1
32695,-81,0.38685,32247,-32,0.27840,1
33544,849,0.50217,31783,-464,0.23959,1
32711,-833,0.38902,30951,-832,0.16998,1
32647,-64,0.38033,30311,-640,0.11645,1
32199,-448,0.31948,29959,-352,0.08700,1
32135,-64,0.31079,29639,-320,0.06023,1
32311,176,0.33469,29415,-224,0.04149,1
32792,481,0.40003,30071,656,0.09637,1
33256,464,0.46305,30999,928,0.17400,1
32407,-849,0.34773,31543,544,0.21951,1
33048,641,0.43480,31975,432,0.25565,1
33064,16,0.43697,32183,208,0.27305,1
32519,-545,0.36294,32968,785,0.33872,1
32904,385,0.41524,33256,288,0.36281,1
32888,-16,0.41307,33336,80,0.36950,1
31911,-977,0.28036,33464,128,0.38021,1
31783,-128,0.26297,33496,32,0.38288,1
31591,-192,0.23689,33480,-16,0.38155,1
31351,-240,0.20429,33736,256,0.40296,1
31831,480,0.26949,33800,64,0.40832,1
31655,-176,0.24559,33688,-112,0.39895,1
31559,-96,0.23255,33240,-448,0.36147,1
31655,96,0.24559,33064,-176,0.34675,1
31911,256,0.28036,32984,-80,0.34005,1
32295,384,0.33252,32952,-32,0.33738,1
32808,513,0.40220,32615,-337,0.30919,1
33528,720,0.50000,32279,-336,0.28108,1
34056,528,0.57172,31799,-480,0.24092,1
33288,-768,0.46740,31255,-544,0.19542,1
32519,-769,0.36294,31111,-144,0.18337,1
33128,609,0.44567,31239,128,0.19408,1
34056,928,0.57172,31511,272,0.21683,1
34344,288,0.61084,31959,448,0.25431,1
35000,656,0.69995,32231,272,0.27706,1
35880,880,0.81948,31767,-464,0.23825,1
36168,288,0.85860,31831,64,0.24360,1
36696,528,0.93032,32471,640,0.29714,1
36616,-80,0.91945,32952,481,0.33738,1
35144,-1472,0.71951,33048,96,0.34541,1
35496,352,0.76732,33272,224,0.36415,1
34840,-656,0.67821,33704,432,0.40028,1
35224,384,0.73037,32952,-752,0.33738,1
35320,96,0.74341,33208,256,0.35879,1
35320,0,0.74341,33608,400,0.39225,1
34600,-720,0.64561,33816,208,0.40965,1
33480,-1120,0.49348,33880,64,0.41501,1
32199,-1281,0.31948,34024,144,0.42705,1
31831,-368,0.26949,34424,400,0.46052,1
32055,224,0.29992,34344,-80,0.45382,1
31623,-432,0.24124,34856,512,0.49665,1
31399,-224,0.21081,36120,1264,0.60239,1
31399,0,0.21081,38089,1969,0.76711,1
32183,784,0.31731,40009,1920,0.92772,1
32952,769,0.42176,40873,864,1.00000,1
32695,-257,0.38685,40233,-640,0.94646,1
32904,209,0.41524,38153,-2080,0.77246,1
32663,-241,0.38250,35320,-2833,0.53547,1
32167,-496,0.31513,31927,-3393,0.25163,1
32087,-80,0.30427,31639,-288,0.22754,1
32583,496,0.37164,31399,-240,0.20746,1
32743,160,0.39337,31367,-32,0.20479,1
31991,-752,0.29123,31543,176,0.21951,1
32151,160,0.31296,30807,-736,0.15794,1
32087,-64,0.30427,30999,192,0.17400,1
32888,801,0.41307,30791,-208,0.15660,1
33128,240,0.44567,30247,-544,0.11109,1
33864,736,0.54564,29991,-256,0.08968,1
34008,144,0.56520,29655,-336,0.06157,1
34200,192,0.59128,30103,448,0.09905,1
34584,384,0.64344,30279,176,0.11377,1
34840,256,0.67821,30503,224,0.13251,1
35000,160,0.69995,30407,-96,0.12448,1
34872,-128,0.68256,29447,-960,0.04417,1
35736,864,0.79992,30311,864,0.11645,1
35032,-704,0.70429,30551,240,0.13652,1
34440,-592,0.62388,30311,-240,0.11645,1
33832,-608,0.54129,30791,480,0.15660,1
33192,-640,0.45436,31207,416,0.19140,1
32711,-481,0.38902,31495,288,0.21549,1
32375,-336,0.34338,32151,656,0.27037,1
31703,-672,0.25211,32007,-144,0.25832,1
31127,-576,0.17387,31655,-352,0.22888,1
31191,64,0.18256,33160,1505,0.35478,1
31095,-96,0.16952,32439,-721,0.29446,1
31255,160,0.19125,32343,-96,0.28643,1
31511,256,0.22603,32776,433,0.32265,1
32071,560,0.30209,33080,304,0.34808,1
33032,961,0.43263,33096,16,0.34942,1
33896,864,0.54999,34184,1088,0.44044,1
34232,336,0.59563,35848,1664,0.57964,1
34680,448,0.65648,37049,1201,0.68011,1
34984,304,0.69777,37481,432,0.71625,1
35368,384,0.74993,36792,-689,0.65861,1
34968,-400,0.69560,34792,-2000,0.49130,1
33992,-976,0.56303,32471,-2321,0.29714,1
33688,-304,0.52173,32519,48,0.30115,1
33928,240,0.55433,32936,417,0.33604,1
32711,-1217,0.38902,32439,-497,0.29446,1
32279,-432,0.33035,31975,-464,0.25565,1
32247,-32,0.32600,31159,-816,0.18738,1
32471,224,0.35642,31943,784,0.25297,1
32551,80,0.36729,32071,128,0.26368,1
33032,481,0.43263,32263,192,0.27974,1
33240,208,0.46088,32407,144,0.29179,1
33448,208,0.48913,32824,417,0.32667,1
33624,176,0.51304,33320,496,0.36816,1
33656,32,0.51739,33416,96,0.37619,1
33400,-256,0.48261,32936,-480,0.33604,1
33752,352,0.53043,32599,-337,0.30785,1
34216,464,0.59345,32439,-160,0.29446,1
34664,448,0.65431,31671,-768,0.23022,1
34840,176,0.67821,31479,-192,0.21415,1
34536,-304,0.63692,31735,256,0.23557,1
34520,-16,0.63475,32615,880,0.30919,1
34072,-448,0.57389,33304,689,0.36682,1
34040,-32,0.56955,33800,496,0.40832,1
33768,-272,0.53260,33976,176,0.42304,1
32936,-832,0.41959,33912,-64,0.41768,1
32087,-849,0.30427,34408,496,0.45918,1
31623,-464,0.24124,34840,432,0.49532,1
31623,0,0.24124,34328,-512,0.45248,1
31783,160,0.26297,34728,400,0.48595,1
32343,560,0.33904,34872,144,0.49799,1
33048,705,0.43480,34376,-496,0.45650,1
33656,608,0.51739,34344,-32,0.45382,1
34184,528,0.58911,34152,-192,0.43776,1
34904,720,0.68691,33736,-416,0.40296,1
35192,288,0.72603,33960,224,0.42170,1
35368,176,0.74993,34504,544,0.46721,1
35368,0,0.74993,34648,144,0.47925,1
35688,320,0.79340,35336,688,0.53681,1
35736,48,0.79992,35272,-64,0.53145,1
35496,-240,0.76732,35160,-112,0.52208,1
35256,-240,0.73472,36136,976,0.60373,1
35208,-48,0.72820,36344,208,0.62113,1
36024,816,0.83904,36536,192,0.63719,1
36360,336,0.88468,36120,-416,0.60239,1
36200,-160,0.86294,35960,-160,0.58901,1
35448,-752,0.76080,35896,-64,0.58365,1
34408,-1040,0.61953,36088,192,0.59972,1
34008,-400,0.56520,36104,16,0.60105,1
33688,-320,0.52173,35880,-224,0.58232,1
33384,-304,0.48044,35640,-240,0.56224,1
33320,-64,0.47175,36040,400,0.59570,1
33224,-96,0.45871,35848,-192,0.57964,1
32936,-288,0.41959,35160,-688,0.52208,1
33096,160,0.44132,35896,736,0.58365,1
33224,128,0.45871,35224,-672,0.52744,1
33144,-80,0.44784,34712,-512,0.48461,1
33368,224,0.47827,34424,-288,0.46052,1
32263,-1105,0.32817,34232,-192,0.44445,1
32567,304,0.36946,33416,-816,0.37619,1
32727,160,0.39120,33192,-224,0.35745,1
32567,-160,0.36946,33416,224,0.37619,1
33240,673,0.46088,34056,640,0.42973,1
33448,208,0.48913,34472,416,0.46453,1
34024,576,0.56737,34600,128,0.47524,1
34744,720,0.66517,35208,608,0.52610,1
34904,160,0.68691,35464,256,0.54752,1
35160,256,0.72168,36216,752,0.61042,1
34968,-192,0.69560,36216,0,0.61042,1
35112,144,0.71516,35944,-272,0.58767,1
35304,192,0.74124,36280,336,0.61578,1
36072,768,0.84556,35240,-1040,0.52878,1
35704,-368,0.79557,34616,-624,0.47658,1
34504,-1200,0.63257,35000,384,0.50870,1
34024,-480,0.56737,35272,272,0.53145,1
33304,-720,0.46957,35592,320,0.55822,1
32695,-609,0.38685,35480,-112,0.54885,1
32535,-160,0.36512,35320,-160,0.53547,1
33320,785,0.47175,35352,32,0.53815,1
34488,1168,0.63040,35208,-144,0.52610,1
35480,992,0.76515,34120,-1088,0.43508,1
36392,912,0.88902,33640,-480,0.39493,1
36360,-32,0.88468,34008,368,0.42572,1
35224,-1136,0.73037,35064,1056,0.51405,1
34648,-576,0.65213,34888,-176,0.49933,1
34760,112,0.66735,35432,544,0.54484,1
34328,-432,0.60867,35752,320,0.57161,1
34296,-32,0.60432,36120,368,0.60239,1
34360,64,0.61301,36088,-32,0.59972,1
34136,-224,0.58259,34952,-1136,0.50468,1
33704,-432,0.52391,34744,-208,0.48728,1
33448,-256,0.48913,34824,80,0.49398,1
33272,-176,0.46523,35528,704,0.55287,1
33192,-80,0.45436,36104,576,0.60105,1
33256,64,0.46305,36648,544,0.64656,1
33160,-96,0.45001,36664,16,0.64790,1
33288,128,0.46740,35704,-960,0.56759,1
34040,752,0.56955,34920,-784,0.50201,1
32856,-1184,0.40872,33480,-1440,0.38155,1
32311,-545,0.33469,32711,-769,0.31722,1
33176,865,0.45219,32583,-128,0.30651,1
33496,320,0.49565,31895,-688,0.24895,1
33960,464,0.55868,32920,1025,0.33470,1
33608,-352,0.51087,33288,368,0.36548,1
33352,-256,0.47609,33128,-160,0.35210,1
33096,-256,0.44132,32968,-160,0.33872,1
33864,768,0.54564,32615,-353,0.30919,1
34872,1008,0.68256,32327,-288,0.28509,1
35272,400,0.73689,31927,-400,0.25163,1
35704,432,0.79557,31111,-816,0.18337,1
34984,-720,0.69777,30663,-448,0.14589,1
34280,-704,0.60215,31207,544,0.19140,1
33800,-480,0.53695,31431,224,0.21014,1
32247,-1553,0.32600,31463,32,0.21282,1
32007,-240,0.29340,30871,-592,0.16329,1
31751,-256,0.25863,30439,-432,0.12715,1
31687,-64,0.24993,30551,112,0.13652,1
31751,64,0.25863,30807,256,0.15794,1
31831,80,0.26949,31127,320,0.18471,1
32295,464,0.33252,32183,1056,0.27305,1
32567,272,0.36946,32519,336,0.30115,1
33032,465,0.43263,32471,-48,0.29714,1
32295,-737,0.33252,31431,-1040,0.21014,1
32231,-64,0.32383,30711,-720,0.14991,1
32327,96,0.33686,31991,1280,0.25699,1
32952,625,0.42176,32007,16,0.25832,1
33032,80,0.43263,32279,272,0.28108,1
33944,912,0.55651,32952,673,0.33738,1
33624,-320,0.51304,33208,256,0.35879,1
33944,320,0.55651,33416,208,0.37619,1
33992,48,0.56303,33480,64,0.38155,1
33784,-208,0.53477,33160,-320,0.35478,1
33480,-304,0.49348,32792,-368,0.32399,1
33320,-160,0.47175,31879,-913,0.24762,1
33384,64,0.48044,32135,256,0.26903,1
33224,-160,0.45871,32439,304,0.29446,1
33272,48,0.46523,32391,-48,0.29045,1
32647,-625,0.38033,31319,-1072,0.20077,1
32231,-416,0.32383,30519,-800,0.13385,1
32055,-176,0.29992,30215,-304,0.10842,1
31863,-192,0.27384,30071,-144,0.09637,1
31719,-144,0.25428,29959,-112,0.08700,1
31399,-320,0.21081,30135,176,0.10172,1
31623,224,0.24124,30855,720,0.16195,1
31431,-192,0.21516,31287,432,0.19809,1
31703,272,0.25211,31959,672,0.25431,1
32663,960,0.38250,32904,945,0.33336,1
33912,1249,0.55216,33832,928,0.41099,1
35224,1312,0.73037,34312,480,0.45115,1
35928,704,0.82600,34120,-192,0.43508,1
36152,224,0.85642,33512,-608,0.38422,1
35544,-608,0.77384,32952,-560,0.33738,1
34392,-1152,0.61736,33240,288,0.36147,1
34296,-96,0.60432,33176,-64,0.35612,1
33560,-736,0.50435,32647,-529,0.31186,1
33992,432,0.56303,33032,385,0.34407,1
35240,1248,0.73255,34376,1344,0.45650,1
35992,752,0.83469,34440,64,0.46185,1
35576,-416,0.77819,33992,-448,0.42438,1
34456,-1120,0.62605,33240,-752,0.36147,1
33560,-896,0.50435,32231,-1009,0.27706,1
32359,-1201,0.34121,31575,-656,0.22219,1
31607,-752,0.23907,31831,256,0.24360,1
31559,-48,0.23255,32103,272,0.26635,1
31159,-400,0.17821,32183,80,0.27305,1
32215,1056,0.32165,32792,609,0.32399,1
32583,368,0.37164,34328,1536,0.45248,1
32872,289,0.41089,35912,1584,0.58499,1
32824,-48,0.40437,36921,1009,0.66940,1
33896,1072,0.54999,37721,800,0.73632,1
34440,544,0.62388,39065,1344,0.84875,1
32631,0,0.42658,32695,0,0.46622,0
32936,305,0.44395,32535,-160,0.46133,0
33480,544,0.47494,32888,353,0.47212,0
33944,464,0.50137,33672,784,0.49609,0
33976,32,0.50319,34552,880,0.52299,0
33592,-384,0.48132,34648,96,0.52592,0
33304,-288,0.46491,36264,1616,0.57532,0
33752,448,0.49043,35720,-544,0.55869,0
34040,288,0.50684,34488,-1232,0.52103,0
34088,48,0.50957,35256,768,0.54451,0
34232,144,0.51777,36696,1440,0.58853,0
35560,1328,0.59342,34504,-2192,0.52152,0
36024,464,0.61985,33208,-1296,0.48190,0
37129,1105,0.68279,30983,-2225,0.41388,0
36520,-609,0.64810,29623,-1360,0.37231,0
36248,-272,0.63260,29607,-16,0.37182,0
35960,-288,0.61620,30391,784,0.39579,0
34520,-1440,0.53418,30519,128,0.39970,0
32792,-1728,0.43575,31191,672,0.42024,0
31511,-1281,0.36278,32135,944,0.44910,0
32023,512,0.39195,32439,304,0.45839,0
32007,-16,0.39103,32071,-368,0.44714,0
31815,-192,0.38010,32503,432,0.46035,0
31687,-128,0.37281,33176,673,0.48092,0
31959,272,0.38830,33672,496,0.49609,0
32087,128,0.39559,34200,528,0.51223,0
32599,512,0.42476,34248,48,0.51370,0
33352,753,0.46765,33832,-416,0.50098,0
33800,448,0.49316,33304,-528,0.48484,0
33944,144,0.50137,32247,-1057,0.45253,0
33992,48,0.50410,31927,-320,0.44274,0
33704,-288,0.48770,32167,240,0.45008,0
33272,-432,0.46309,32952,785,0.47408,0
32856,-416,0.43939,34184,1232,0.51174,0
32183,-673,0.40106,34792,608,0.53033,0
31943,-240,0.38739,34248,-544,0.51370,0
32776,833,0.43484,34472,224,0.52054,0
33736,960,0.48952,34696,224,0.52739,0
33992,256,0.50410,34264,-432,0.51418,0
35000,1008,0.56152,34024,-240,0.50685,0
34728,-272,0.54602,35272,1248,0.54500,0
34648,-80,0.54147,35560,288,0.55380,0
35096,448,0.56699,36360,800,0.57826,0
35640,544,0.59797,34952,-1408,0.53522,0
36568,928,0.65083,34296,-656,0.51516,0
37129,561,0.68279,31751,-2545,0.43736,0
34760,-2369,0.54785,28695,-3056,0.34394,0
33880,-880,0.49772,28983,288,0.35275,0
32535,-1345,0.42111,29703,720,0.37476,0
30951,-1584,0.33088,30023,320,0.38454,0
29687,-1264,0.25889,30727,704,0.40606,0
28679,-1008,0.20147,32103,1376,0.44812,0
28598,-81,0.19686,32776,673,0.46870,0
29287,689,0.23610,33608,832,0.49413,0
30135,848,0.28440,34632,1024,0.52543,0
30567,432,0.30901,35112,480,0.54011,0
30743,176,0.31904,34424,-688,0.51908,0
31383,640,0.35549,33672,-752,0.49609,0
31863,480,0.38283,33720,48,0.49755,0
32359,496,0.41108,35000,1280,0.53668,0
32840,481,0.43848,35464,464,0.55087,0
33064,224,0.45124,35736,272,0.55918,0
35032,1968,0.56334,35896,160,0.56407,0
36072,1040,0.62258,35336,-560,0.54696,0
36264,192,0.63352,32936,-2400,0.47359,0
36072,-192,0.62258,32599,-337,0.46329,0
35368,-704,0.58248,33288,689,0.48435,0
35368,0,0.58248,33816,528,0.50049,0
35736,368,0.60344,33784,-32,0.49951,0
36024,288,0.61985,32808,-976,0.46967,0
36376,352,0.63990,31447,-1361,0.42807,0
36232,-144,0.63169,29495,-1952,0.36840,0
35672,-560,0.59979,28006,-1489,0.32288,0
34184,-1488,0.51504,27398,-608,0.30429,0
32407,-1777,0.41382,29047,1649,0.35470,0
31063,-1344,0.33726,31463,2416,0.42856,0
30455,-608,0.30263,33592,2129,0.49364,0
30359,-96,0.29716,35160,1568,0.54157,0
31127,768,0.34091,35624,464,0.55576,0
32808,1681,0.43666,35048,-576,0.53815,0
34616,1808,0.53964,33496,-1552,0.49071,0
36072,1456,0.62258,31079,-2417,0.41682,0
36600,528,0.65265,29351,-1728,0.36399,0
37433,833,0.70010,27942,-1409,0.32092,0
37241,-192,0.68917,27990,48,0.32239,0
36104,-1137,0.62440,28775,785,0.34639,0
34024,-2080,0.50592,31095,2320,0.41731,0
32119,-1905,0.39741,33384,2289,0.48728,0
31495,-624,0.36187,34344,960,0.51663,0
31975,480,0.38921,35496,1152,0.55185,0
31783,-192,0.37828,36664,1168,0.58755,0
31399,-384,0.35640,37817,1153,0.62280,0
31655,256,0.37098,37945,128,0.62671,0
32311,656,0.40835,36040,-1905,0.56848,0
32247,-64,0.40470,33832,-2208,0.50098,0
31351,-896,0.35367,32984,-848,0.47506,0
30519,-832,0.30628,34136,1152,0.51027,0
31735,1216,0.37554,35624,1488,0.55576,0
31863,128,0.38283,34344,-1280,0.51663,0
33032,1169,0.44942,32071,-2273,0.44714,0
32792,-240,0.43575,31767,-304,0.43785,0
31975,-817,0.38921,30999,-768,0.41437,0
31879,-96,0.38374,30311,-688,0.39334,0
31959,80,0.38830,31095,784,0.41731,0
30935,-1024,0.32997,31255,160,0.42220,0
30087,-848,0.28167,31719,464,0.43638,0
31095,1008,0.33909,32519,800,0.46084,0
30711,-384,0.31721,33464,945,0.48973,0
32263,1552,0.40562,34536,1072,0.52250,0
30919,-1344,0.32906,35016,480,0.53717,0
32183,1264,0.40106,34824,-192,0.53130,0
32679,496,0.42931,33992,-832,0.50587,0
32583,-96,0.42384,33496,-496,0.49071,0
32423,-160,0.41473,33224,-272,0.48239,0
32984,561,0.44668,31959,-1265,0.44372,0
34568,1584,0.53691,31047,-912,0.41584,0
35464,896,0.58795,29479,-1568,0.36791,0
36376,912,0.63990,28486,-993,0.33755,0
37257,881,0.69008,28983,497,0.35275,0
37705,448,0.71560,30759,1776,0.40704,0
37161,-544,0.68461,32215,1456,0.45155,0
36152,-1009,0.62714,34888,2673,0.53326,0
35464,-688,0.58795,36969,2081,0.59688,0
34648,-816,0.54147,37049,80,0.59932,0
34632,-16,0.54056,35720,-1329,0.55869,0
34664,32,0.54238,34504,-1216,0.52152,0
33624,-1040,0.48314,32359,-2145,0.45595,0
31351,-2273,0.35367,31223,-1136,0.42122,0
28967,-2384,0.21787,30199,-1024,0.38992,0
28582,-385,0.19594,30487,288,0.39872,0
28198,-384,0.17407,31095,608,0.41731,0
28887,689,0.21332,31911,816,0.44225,0
29847,960,0.26800,33320,1409,0.48533,0
31207,1360,0.34547,35160,1840,0.54157,0
31479,272,0.36096,35560,400,0.55380,0
31255,-224,0.34820,34744,-816,0.52886,0
31079,-176,0.33817,34408,-336,0.51859,0
31335,256,0.35276,34536,128,0.52250,0
32311,976,0.40835,34776,240,0.52984,0
32856,545,0.43939,34568,-208,0.52348,0
33384,528,0.46947,34328,-240,0.51614,0
33624,240,0.48314,33736,-592,0.49804,0
32551,-1073,0.42202,32936,-800,0.47359,0
32023,-528,0.39195,33032,96,0.47652,0
31463,-560,0.36005,34984,1952,0.53619,0
31463,0,0.36005,36712,1728,0.58902,0
32055,592,0.39377,37945,1233,0.62671,0
31879,-176,0.38374,39577,1632,0.67660,0
31399,-480,0.35640,41306,1729,0.72946,0
30583,-816,0.30992,40425,-881,0.70253,0
32151,1568,0.39924,37769,-2656,0.62133,0
33656,1505,0.48496,35000,-2769,0.53668,0
33832,176,0.49499,33400,-1600,0.48777,0
33752,-80,0.49043,31911,-1489,0.44225,0
33576,-176,0.48041,31511,-400,0.43003,0
33320,-256,0.46582,32295,784,0.45399,0
33928,608,0.50046,34360,2065,0.51712,0
34024,96,0.50592,36488,2128,0.58217,0
33736,-288,0.48952,36312,-176,0.57679,0
34136,400,0.51230,35720,-592,0.55869,0
34296,160,0.52142,33896,-1824,0.50293,0
34552,256,0.53600,32727,-1169,0.46720,0
33656,-896,0.48496,32663,-64,0.46524,0
32407,-1249,0.41382,32727,64,0.46720,0
30919,-1488,0.32906,31479,-1248,0.42905,0
30375,-544,0.29807,29895,-1584,0.38062,0
30951,576,0.33088,30135,240,0.38796,0
30791,-160,0.32177,31031,896,0.41535,0
31207,416,0.34547,32135,1104,0.44910,0
32007,800,0.39103,32471,336,0.45937,0
33752,1745,0.49043,32535,64,0.46133,0
34840,1088,0.55240,33592,1057,0.49364,0
34456,-384,0.53053,32936,-656,0.47359,0
33928,-528,0.50046,32199,-737,0.45106,0
33048,-880,0.45033,31047,-1152,0.41584,0
31655,-1393,0.37098,30711,-336,0.40557,0
29895,-1760,0.27073,30759,48,0.40704,0
32263,2368,0.40562,31287,528,0.42318,0
35528,3265,0.59159,32151,864,0.44959,0
36648,1120,0.65539,31527,-624,0.43051,0
37833,1185,0.72289,32439,912,0.45839,0
38713,880,0.77301,33608,1169,0.49413,0
39113,400,0.79580,33256,-352,0.48337,0
37913,-1200,0.72744,33944,688,0.50440,0
34616,-3297,0.53964,34328,384,0.51614,0
30359,-4257,0.29716,35896,1568,0.56407,0
29079,-1280,0.22425,38985,3089,0.65850,0
29591,512,0.25342,41258,2273,0.72799,0
31191,1600,0.34455,42506,1248,0.76614,0
32279,1088,0.40653,42330,-176,0.76076,0
33976,1697,0.50319,42090,-240,0.75342,0
35464,1488,0.58795,39401,-2689,0.67122,0
36056,592,0.62167,35640,-3761,0.55625,0
36568,512,0.65083,32792,-2848,0.46919,0
36552,-16,0.64992,29895,-2897,0.38062,0
36616,64,0.65357,26438,-3457,0.27494,0
35704,-912,0.60162,23845,-2593,0.19568,0
34952,-752,0.55878,23765,-80,0.19323,0
35560,608,0.59342,25478,1713,0.24560,0
34584,-976,0.53782,27158,1680,0.29696,0
32455,-2129,0.41655,27142,-16,0.29647,0
30903,-1552,0.32815,28695,1553,0.34394,0
30567,-336,0.30901,31047,2352,0.41584,0
29319,-1248,0.23792,35240,4193,0.54402,0
29751,432,0.26253,36488,1248,0.58217,0
32984,3233,0.44668,37017,529,0.59834,0
34200,1216,0.51595,38473,1456,0.64285,0
35192,992,0.57245,38265,-208,0.63649,0
37417,2225,0.69919,36248,-2017,0.57483,0
38937,1520,0.78577,34616,-1632,0.52494,0
38953,16,0.78668,32215,-2401,0.45155,0
36216,-2737,0.63078,30615,-1600,0.40264,0
33032,-3184,0.44942,29335,-1280,0.36351,0
33256,224,0.46218,27510,-1825,0.30772,0
33976,720,0.50319,26022,-1488,0.26223,0
34056,80,0.50775,25670,-352,0.25147,0
33656,-400,0.48496,28390,2720,0.33462,0
33464,-192,0.47403,32727,4337,0.46720,0
33336,-128,0.46673,36296,3569,0.57630,0
33000,-336,0.44760,38985,2689,0.65850,0
32695,-305,0.43022,39945,960,0.68785,0
31687,-1008,0.37281,40505,560,0.70497,0
30887,-800,0.32724,39625,-880,0.67807,0
30343,-544,0.29625,37401,-2224,0.61008,0
31255,912,0.34820,37801,400,0.62231,0
31895,640,0.38465,38105,304,0.63160,0
31639,-256,0.37007,38233,128,0.63552,0
31175,-464,0.34364,38025,-208,0.62916,0
31111,-64,0.34000,36392,-1633,0.57924,0
32087,976,0.39559,33800,-2592,0.50000,0
32471,384,0.41746,32247,-1553,0.45253,0
30791,-1680,0.32177,31671,-576,0.43492,0
31127,336,0.34091,32119,448,0.44861,0
31927,800,0.38648,33512,1393,0.49120,0
32263,336,0.40562,33912,400,0.50342,0
31719,-544,0.37463,35960,2048,0.56603,0
32039,320,0.39286,36776,816,0.59098,0
31847,-192,0.38192,35480,-1296,0.55136,0
33336,1489,0.46673,35304,-176,0.54598,0
35800,2464,0.60709,37801,2497,0.62231,0
37609,1809,0.71013,41226,3425,0.72701,0
38889,1280,0.78304,43098,1872,0.78424,0
38361,-528,0.75296,42810,-288,0.77543,0
37785,-576,0.72015,42074,-736,0.75293,0
38105,320,0.73838,42634,560,0.77005,0
38185,80,0.74294,42602,-32,0.76908,0
36969,-1216,0.67367,38713,-3889,0.65019,0
35576,-1393,0.59433,34248,-4465,0.51370,0
33784,-1792,0.49225,31223,-3025,0.42122,0
31623,-2161,0.36916,28390,-2833,0.33462,0
30919,-704,0.32906,26502,-1888,0.27690,0
32183,1264,0.40106,26166,-336,0.26663,0
34056,1873,0.50775,27702,1536,0.31359,0
35480,1424,0.58886,29911,2209,0.38111,0
34200,-1280,0.51595,31111,1200,0.41780,0
31975,-2225,0.38921,33256,2145,0.48337,0
31799,-176,0.37919,35320,2064,0.54647,0
34216,2417,0.51686,37465,2145,0.61204,0
33448,-768,0.47311,37961,496,0.62720,0
31239,-2209,0.34729,36648,-1313,0.58706,0
30167,-1072,0.28623,34952,-1696,0.53522,0
30471,304,0.30354,34872,-80,0.53277,0
32199,1728,0.40197,34120,-752,0.50978,0
31495,-704,0.36187,34888,768,0.53326,0
29959,-1536,0.27438,36824,1936,0.59244,0
30743,784,0.31904,39337,2513,0.66927,0
33800,3057,0.49316,40745,1408,0.71231,0
36328,2528,0.63716,39897,-848,0.68638,0
37641,1313,0.71195,38601,-1296,0.64677,0
40057,2416,0.84957,36696,-1905,0.58853,0
41722,1665,0.94441,34248,-2448,0.51370,0
41546,-176,0.93438,33752,-496,0.49853,0
41002,-544,0.90339,33560,-192,0.49266,0
40281,-721,0.86233,31895,-1665,0.44176,0
40441,160,0.87144,32407,512,0.45742,0
40793,352,0.89149,30919,-1488,0.41193,0
38425,-2368,0.75661,27670,-3249,0.31261,0
34872,-3553,0.55423,23589,-4081,0.18785,0
33528,-1344,0.47767,21461,-2128,0.12280,0
32471,-1057,0.41746,21301,-160,0.11791,0
30839,-1632,0.32450,21589,288,0.12671,0
29111,-1728,0.22608,22213,624,0.14579,0
27206,-1905,0.11757,23365,1152,0.18100,0
26150,-1056,0.05742,25190,1825,0.23679,0
25142,-1008,0.00000,27270,2080,0.30038,0
25446,304,0.01732,29495,2225,0.36840,0
25990,544,0.04830,31479,1984,0.42905,0
27094,1104,0.11119,32487,1008,0.45986,0
30871,3777,0.32633,33560,1073,0.49266,0
32968,2097,0.44577,34664,1104,0.52641,0
36168,3200,0.62805,35992,1328,0.56701,0
38745,2577,0.77483,36728,736,0.58951,0
40841,2096,0.89422,36344,-384,0.57777,0
42698,1857,1.00000,35768,-576,0.56016,0
42362,-336,0.98086,35096,-672,0.53962,0
39241,-3121,0.80309,33224,-1872,0.48239,0
38009,-1232,0.73291,34200,976,0.51223,0
37657,-352,0.71286,34776,576,0.52984,0
36104,-1553,0.62440,35352,576,0.54744,0
33832,-2272,0.49499,32471,-2881,0.45937,0
32856,-976,0.43939,30263,-2208,0.39187,0
33384,528,0.46947,27366,-2897,0.30331,0
34760,1376,0.54785,24646,-2720,0.22016,0
34440,-320,0.52962,20501,-4145,0.09345,0
34200,-240,0.51595,18724,-1777,0.03913,0
34536,336,0.53509,18916,192,0.04500,0
34392,-144,0.52689,20949,2033,0.10715,0
31959,-2433,0.38830,23941,2992,0.19861,0
29895,-2064,0.27073,27990,4049,0.32239,0
27014,-2881,0.10663,33432,5442,0.48875,0
26422,-592,0.07291,39417,5985,0.67171,0
26470,48,0.07564,46155,6738,0.87769,0
27190,720,0.11666,49836,3681,0.99022,0
28198,1008,0.17407,50156,320,1.00000,0
29175,977,0.22972,45451,-4705,0.85617,0
29111,-64,0.22608,37753,-7698,0.62084,0
28534,-577,0.19321,34184,-3569,0.51174,0
29111,577,0.22608,33496,-688,0.49071,0
31527,2416,0.36369,33736,240,0.49804,0
35672,4145,0.59979,35064,1328,0.53864,0
37657,1985,0.71286,36664,1600,0.58755,0
37865,208,0.72471,37705,1041,0.61938,0
36456,-1409,0.64445,40137,2432,0.69372,0
33768,-2688,0.49134,40473,336,0.70399,0
31079,-2689,0.33817,40569,96,0.70693,0
29623,-1456,0.25524,40025,-544,0.69030,0
30039,416,0.27894,36969,-3056,0.59688,0
29911,-128,0.27165,33288,-3681,0.48435,0
28999,-912,0.21970,31511,-1777,0.43003,0
28422,-577,0.18683,30455,-1056,0.39774,0
29111,689,0.22608,32071,1616,0.44714,0
29543,432,0.25068,34920,2849,0.53424,0
29671,128,0.25797,34008,-912,0.50636,0
30535,864,0.30719,33480,-528,0.49022,0
30999,464,0.33362,30743,-2737,0.40655,0
30231,-768,0.28987,29879,-864,0.38014,0
28919,-1312,0.21514,30855,976,0.40997,0
28871,-48,0.21241,32327,1472,0.45497,0
27222,-1649,0.11848,33848,1521,0.50147,0
26518,-704,0.07838,34280,432,0.51467,0
27942,1424,0.15949,34376,96,0.51761,0
30391,2449,0.29899,34104,-272,0.50929,0
31767,1376,0.37736,33496,-608,0.49071,0
32936,1169,0.44395,32872,-624,0.47163,0
33944,1008,0.50137,32279,-593,0.45350,0
35000,1056,0.56152,33224,945,0.48239,0
34872,-128,0.55423,34344,1120,0.51663,0
33688,-1184,0.48679,34360,16,0.51712,0
34840,1152,0.55240,33624,-736,0.49462,0
35416,576,0.58521,32359,-1265,0.45595,0
37145,1729,0.68370,31383,-976,0.42611,0
38937,1792,0.78577,30007,-1376,0.38405,0
40489,1552,0.87417,28326,-1681,0.33266,0
40377,-112,0.86779,27030,-1296,0.29304,0
39017,-1360,0.79033,26054,-976,0.26321,0
38361,-656,0.75296,26150,96,0.26614,0
36985,-1376,0.67458,25494,-656,0.24609,0
35656,-1329,0.59888,24469,-1025,0.21475,0
34504,-1152,0.53327,24053,-416,0.20204,0
33624,-880,0.48314,25606,1553,0.24951,0
32231,-1393,0.40379,27590,1984,0.31016,0
32615,384,0.42567,29927,2337,0.38160,0
35160,2545,0.57063,31191,1264,0.42024,0
36905,1745,0.67003,32199,1008,0.45106,0
35256,-1649,0.57610,33256,1057,0.48337,0
35080,-176,0.56607,34312,1056,0.51565,0
33976,-1104,0.50319,34280,-32,0.51467,0
31639,-2337,0.37007,35352,1072,0.54744,0
31799,160,0.37919,38217,2865,0.63503,0
33736,1937,0.48952,40729,2512,0.71182,0
35160,1424,0.57063,41674,945,0.74071,0
34648,-512,0.54147,40745,-929,0.71231,0
33192,-1456,0.45853,39529,-1216,0.67513,0
33304,112,0.46491,37913,-1616,0.62573,0
33912,608,0.49954,34584,-3329,0.52397,0
32503,-1409,0.41929,30695,-3889,0.40508,0
32087,-416,0.39559,27942,-2753,0.32092,0
32679,592,0.42931,26390,-1552,0.27348,0
33768,1089,0.49134,25766,-624,0.25440,0
34200,432,0.51595,25110,-656,0.23435,0
35752,1552,0.60435,25238,128,0.23826,0
35640,-112,0.59797,25222,-16,0.23777,0
34088,-1552,0.50957,25398,176,0.24315,0
32327,-1761,0.40926,25542,144,0.24755,0
30983,-1344,0.33271,27174,1632,0.29744,0
31975,992,0.38921,29655,2481,0.37329,0
32567,592,0.42293,30983,1328,0.41388,0
31575,-992,0.36643,30887,-96,0.41095,0
30135,-1440,0.28440,30759,-128,0.40704,0
29127,-1008,0.22699,30695,-64,0.40508,0
29207,80,0.23154,31783,1088,0.43834,0
30487,1280,0.30445,32167,384,0.45008,0
31607,1120,0.36825,32856,689,0.47114,0
32407,800,0.41382,33224,368,0.48239,0
32247,-160,0.40470,31751,-1473,0.43736,0
31335,-912,0.35276,32199,448,0.45106,0
30791,-544,0.32177,32840,641,0.47065,0
30167,-624,0.28623,33304,464,0.48484,0
30887,720,0.32724,33672,368,0.49609,0
32423,1536,0.41473,33480,-192,0.49022,0
33448,1025,0.47311,30599,-2881,0.40215,0
34632,1184,0.54056,29431,-1168,0.36644,0
35960,1328,0.61620,30647,1216,0.40361,0
35752,-208,0.60435,33000,2353,0.47554,0
34856,-896,0.55332,36760,3760,0.59049,0
31527,-3329,0.36369,39449,2689,0.67269,0
29431,-2096,0.24430,40986,1537,0.71967,0
29367,-64,0.24066,40873,-113,0.71622,0
31767,2400,0.37736,38873,-2000,0.65508,0
34632,2865,0.54056,35432,-3441,0.54989,0
37641,3009,0.71195,34280,-1152,0.51467,0
38633,992,0.76846,34280,0,0.51467,0
38553,-80,0.76390,34360,80,0.51712,0
37449,-1104,0.70101,34440,80,0.51956,0
36328,-1121,0.63716,33960,-480,0.50489,0
34760,-1568,0.54785,33896,-64,0.50293,0
31591,-3169,0.36734,35560,1664,0.55380,0
29079,-2512,0.22425,36648,1088,0.58706,0
26502,-2577,0.07747,37369,721,0.60910,0
26118,-384,0.05559,38745,1376,0.65117,0
27654,1536,0.14308,41354,2609,0.73092,0
30695,3041,0.31630,42602,1248,0.76908,0
35336,4641,0.58066,40409,-2193,0.70204,0
37017,1681,0.67641,34808,-5601,0.53081,0
35528,-1489,0.59159,30887,-3921,0.41095,0
33112,-2416,0.45398,27446,-3441,0.30576,0
32631,-481,0.42658,28070,624,0.32483,0
30215,-2416,0.28896,27670,-400,0.31261,0
29159,-1056,0.22881,28102,432,0.32581,0
29255,96,0.23428,30487,2385,0.39872,0
30839,1584,0.32450,33448,2961,0.48924,0
32631,1792,0.42658,34136,688,0.51027,0
34632,2001,0.54056,32247,-1889,0.45253,0
35656,1024,0.59888,29031,-3216,0.35421,0
37081,1425,0.68005,25894,-3137,0.25831,0
36664,-417,0.65630,24197,-1697,0.20644,0
36520,-144,0.64810,25894,1697,0.25831,0
35256,-1264,0.57610,30343,4449,0.39432,0
33272,-1984,0.46309,35480,5137,0.55136,0
32167,-1105,0.40015,40377,4897,0.70106,0
32231,64,0.40379,43866,3489,0.80772,0
33112,881,0.45398,41914,-1952,0.74804,0
34056,944,0.50775,36264,-5650,0.57532,0
34680,624,0.54329,27926,-8338,0.32043,0
35144,464,0.56972,22117,-5809,0.14285,0
35416,272,0.58521,19284,-2833,0.05625,0
35176,-240,0.57154,17444,-1840,0.00000,0
35720,544,0.60253,17908,464,0.01418,0
35080,-640,0.56607,19188,1280,0.05331,0
34904,-176,0.55605,22085,2897,0.14187,0
34936,32,0.55787,25510,3425,0.24658,0
32792,-2144,0.43575,27654,2144,0.31212,0
31479,-1313,0.36096,29783,2129,0.37720,0
31767,288,0.37736,30919,1136,0.41193,0
33144,1377,0.45580,31575,656,0.43198,0
33608,464,0.48223,31815,240,0.43932,0
34120,512,0.51139,31895,80,0.44176,0
33544,-576,0.47858,31175,-720,0.41975,0
33848,304,0.49590,30839,-336,0.40948,0
33720,-128,0.48861,30119,-720,0.38747,0
34296,576,0.52142,28006,-2113,0.32288,0
34008,-288,0.50501,25046,-2960,0.23239,0
34744,736,0.54694,23509,-1537,0.18541,0
34840,96,0.55240,23637,128,0.18932,0
35224,384,0.57428,24021,384,0.20106,0
34680,-544,0.54329,24325,304,0.21035,0
34632,-48,0.54056,24902,577,0.22799,0
34536,-96,0.53509,25398,496,0.24315,0
34040,-496,0.50684,27174,1776,0.29744,0
32503,-1537,0.41929,29783,2609,0.37720,0
30967,-1536,0.33180,32391,2608,0.45693,0
30983,16,0.33271,34408,2017,0.51859,0
31127,144,0.34091,35112,704,0.54011,0
30183,-944,0.28714,35864,752,0.56310,0
29463,-720,0.24613,35640,-224,0.55625,0
29719,256,0.26071,34472,-1168,0.52054,0
30519,800,0.30628,34440,-32,0.51956,0
30839,320,0.32450,34664,224,0.52641,0
30935,96,0.32997,34376,-288,0.51761,0
31031,96,0.33544,34680,304,0.52690,0
31031,0,0.33544,35768,1088,0.56016,0
29895,-1136,0.27073,37657,1889,0.61791,0
30183,288,0.28714,39241,1584,0.66633,0
31399,1216,0.35640,40857,1616,0.71573,0
31527,128,0.36369,41098,241,0.72310,0
32503,976,0.41929,40505,-593,0.70497,0
30375,-2128,0.29807,39177,-1328,0.66437,0
29319,-1056,0.23792,38553,-624,0.64530,0
29495,176,0.24795,39625,1072,0.67807,0
31735,2240,0.37554,39401,-224,0.67122,0
33080,1345,0.45215,38217,-1184,0.63503,0
34040,960,0.50684,37641,-576,0.61742,0
35048,1008,0.56425,36520,-1121,0.58315,0
36520,1472,0.64810,35368,-1152,0.54793,0
36905,385,0.67003,33752,-1616,0.49853,0
35560,-1345,0.59342,31575,-2177,0.43198,0
32343,-3217,0.41017,28550,-3025,0.33951,0
29543,-2800,0.25068,25094,-3456,0.23386,0
26966,-2577,0.10390,25446,352,0.24462,0
25734,-1232,0.03372,27654,2208,0.31212,0
33464,0,0.51195,35752,0,0.82984,1
34056,592,0.57486,36680,928,0.91561,1
34152,96,0.58506,36168,-512,0.86829,1
33576,-576,0.52386,35720,-448,0.82688,1
33704,128,0.53746,36472,752,0.89639,1
33272,-432,0.49155,36136,-336,0.86533,1
33784,512,0.54596,34952,-1184,0.75589,1
33240,-544,0.48815,33784,-1168,0.64793,1
32119,-1121,0.36904,33448,-336,0.61688,1
30663,-1456,0.21432,32840,-608,0.56068,1
29623,-1040,0.10381,31815,-1025,0.46594,1
29543,-80,0.09531,30983,-832,0.38904,1
30103,560,0.15482,30871,-112,0.37869,1
30167,64,0.16162,31127,256,0.40235,1
30247,80,0.17012,31079,-48,0.39791,1
30151,-96,0.15992,30935,-144,0.38460,1
29959,-192,0.13952,31591,656,0.44524,1
30199,240,0.16502,32792,1201,0.55624,1
30743,544,0.22282,33752,960,0.64498,1
31879,1136,0.34353,34264,512,0.69230,1
31815,-64,0.33673,33672,-592,0.63758,1
32311,496,0.38944,34632,960,0.72631,1
32599,288,0.42004,33976,-656,0.66568,1
32936,337,0.45585,34488,512,0.71300,1
32711,-225,0.43194,34552,64,0.71892,1
33976,1265,0.56636,33336,-1216,0.60653,1
33512,-464,0.51705,31303,-2033,0.41862,1
32792,-720,0.44055,30023,-1280,0.30031,1
32135,-657,0.37074,30775,752,0.36981,1
31831,-304,0.33843,32407,1632,0.52066,1
31847,16,0.34013,33368,961,0.60948,1
32183,336,0.37584,34040,672,0.67160,1
32039,-144,0.36054,34408,368,0.70561,1
33240,1201,0.48815,34904,496,0.75146,1
34376,1136,0.60886,35720,816,0.82688,1
34904,528,0.66497,36408,688,0.89047,1
34584,-320,0.63096,36760,352,0.92301,1
35080,496,0.68367,35784,-976,0.83279,1
34888,-192,0.66327,33656,-2128,0.63610,1
33800,-1088,0.54766,32471,-1185,0.52657,1
33208,-592,0.48475,32231,-240,0.50439,1
31719,-1489,0.32653,31447,-784,0.43193,1
30935,-784,0.24323,30951,-496,0.38608,1
31063,128,0.25683,31591,640,0.44524,1
31527,464,0.30613,31287,-304,0.41714,1
32375,848,0.39624,31447,160,0.43193,1
33496,1121,0.51535,31671,224,0.45263,1
33896,400,0.55786,31383,-288,0.42601,1
33784,-112,0.54596,31127,-256,0.40235,1
33240,-544,0.48815,31191,64,0.40826,1
32663,-577,0.42684,32119,928,0.49404,1
32375,-288,0.39624,32087,-32,0.49108,1
32103,-272,0.36734,31703,-384,0.45559,1
33368,1265,0.50175,31543,-160,0.44080,1
32567,-801,0.41664,31335,-208,0.42157,1
32776,209,0.43885,31543,208,0.44080,1
32776,0,0.43885,31847,304,0.46890,1
32615,-161,0.42174,31831,-16,0.46742,1
32343,-272,0.39284,31367,-464,0.42453,1
32183,-160,0.37584,30359,-1008,0.33136,1
32359,176,0.39454,31175,816,0.40678,1
32391,32,0.39794,31623,448,0.44819,1
33000,609,0.46265,31847,224,0.46890,1
33064,64,0.46945,31751,-96,0.46002,1
33304,240,0.49495,31623,-128,0.44819,1
33992,688,0.56806,30855,-768,0.37721,1
34616,624,0.63436,31431,576,0.43045,1
35240,624,0.70067,30471,-960,0.34171,1
35688,448,0.74827,29111,-1360,0.21601,1
36296,608,0.81288,27974,-1137,0.11092,1
37209,913,0.90989,28086,112,0.12127,1
37689,480,0.96090,27334,-752,0.05176,1
37641,-48,0.95580,27030,-304,0.02366,1
37513,-128,0.94220,27030,0,0.02366,1
37689,176,0.96090,28662,1632,0.17451,1
37785,96,0.97110,29335,673,0.23671,1
38057,272,1.00000,29095,-240,0.21453,1
37657,-400,0.95750,28150,-945,0.12718,1
37577,-80,0.94900,27254,-896,0.04437,1
37689,112,0.96090,26774,-480,0.00000,1
37609,-80,0.95240,27558,784,0.07247,1
36632,-977,0.84858,28486,928,0.15824,1
35240,-1392,0.70067,29383,897,0.24115,1
33992,-1248,0.56806,31303,1920,0.41862,1
32856,-1136,0.44735,33240,1937,0.59765,1
31895,-961,0.34523,35192,1952,0.77808,1
31639,-256,0.31803,35288,96,0.78695,1
31735,96,0.32823,34824,-464,0.74406,1
32039,304,0.36054,33736,-1088,0.64350,1
32567,528,0.41664,33272,-464,0.60061,1
32888,321,0.45075,33448,176,0.61688,1
32471,-417,0.40644,33608,160,0.63167,1
32087,-384,0.36564,33448,-160,0.61688,1
31927,-160,0.34863,33208,-240,0.59469,1
31111,-816,0.26193,33096,-112,0.58434,1
30215,-896,0.16672,32247,-849,0.50587,1
29895,-320,0.13272,32247,0,0.50587,1
29559,-336,0.09701,32311,64,0.51178,1
29463,-96,0.08681,32039,-272,0.48664,1
29831,368,0.12592,32215,176,0.50291,1
30151,320,0.15992,32103,-112,0.49256,1
29511,-640,0.09191,32039,-64,0.48664,1
29767,256,0.11912,31703,-336,0.45559,1
29431,-336,0.08341,31639,-64,0.44967,1
28646,-785,0.00000,31831,192,0.46742,1
29047,401,0.04261,32231,400,0.50439,1
29319,272,0.07151,32487,256,0.52805,1
29975,656,0.14122,31751,-736,0.46002,1
30391,416,0.18542,31879,128,0.47186,1
30919,528,0.24153,31511,-368,0.43784,1
31015,96,0.25173,31991,480,0.48221,1
30615,-400,0.20922,32535,544,0.53249,1
29783,-832,0.12082,31655,-880,0.45115,1
29895,112,0.13272,32583,928,0.53693,1
29847,-48,0.12762,33000,417,0.57547,1
29255,-592,0.06471,33208,208,0.59469,1
29271,16,0.06641,33272,64,0.60061,1
29175,-96,0.05621,32743,-529,0.55171,1
29943,768,0.13782,33816,1073,0.65089,1
30631,688,0.21092,34424,608,0.70709,1
30807,176,0.22962,34088,-336,0.67603,1
30039,-768,0.14802,34120,32,0.67899,1
30871,832,0.23643,34168,48,0.68343,1
31063,192,0.25683,34440,272,0.70857,1
31207,144,0.27213,34808,368,0.74258,1
31463,256,0.29933,34312,-496,0.69674,1
31607,144,0.31463,33224,-1088,0.59617,1
31895,288,0.34523,32679,-545,0.54580,1
32455,560,0.40474,32936,257,0.56955,1
32808,353,0.44225,33624,688,0.63315,1
32647,-161,0.42514,34376,752,0.70265,1
33272,625,0.49155,34360,-16,0.70117,1
33208,-64,0.48475,32695,-1665,0.54728,1
32551,-657,0.41494,30711,-1984,0.36390,1
33624,1073,0.52896,30871,160,0.37869,1
33432,-192,0.50855,30247,-624,0.32101,1
32551,-881,0.41494,29639,-608,0.26481,1
32247,-304,0.38264,29607,-32,0.26185,1
32151,-96,0.37244,30279,672,0.32397,1
32007,-144,0.35714,30615,336,0.35502,1
32359,352,0.39454,30759,144,0.36833,1
32007,-352,0.35714,30423,-336,0.33728,1
32231,224,0.38094,30599,176,0.35354,1
32824,593,0.44395,30439,-160,0.33876,1
33576,752,0.52386,30199,-240,0.31657,1
33992,416,0.56806,30055,-144,0.30326,1
33784,-208,0.54596,30199,144,0.31657,1
32679,-1105,0.42854,29975,-224,0.29587,1
32103,-576,0.36734,31671,1696,0.45263,1
31815,-288,0.33673,31943,272,0.47777,1
31079,-736,0.25853,30663,-1280,0.35946,1
30423,-656,0.18882,29543,-1120,0.25594,1
30935,512,0.24323,31127,1584,0.40235,1
31255,320,0.27723,32439,1312,0.52362,1
31527,272,0.30613,32567,128,0.53545,1
31655,128,0.31973,32311,-256,0.51178,1
31735,80,0.32823,32199,-112,0.50143,1
32247,512,0.38264,32119,-80,0.49404,1
32279,32,0.38604,31911,-208,0.47481,1
32039,-240,0.36054,31623,-288,0.44819,1
32423,384,0.40134,31399,-224,0.42749,1
32519,96,0.41154,30871,-528,0.37869,1
32567,48,0.41664,30055,-816,0.30326,1
32647,80,0.42514,29447,-608,0.24707,1
32936,289,0.45585,29015,-432,0.20714,1
33224,288,0.48645,28871,-144,0.19383,1
33608,384,0.52726,29223,352,0.22636,1
34024,416,0.57146,29015,-208,0.20714,1
34120,96,0.58166,30167,1152,0.31361,1
34360,240,0.60716,31015,848,0.39200,1
34168,-192,0.58676,31415,400,0.42897,1
33720,-448,0.53916,31575,160,0.44376,1
32984,-736,0.46095,31079,-496,0.39791,1
32295,-689,0.38774,30439,-640,0.33876,1
31671,-624,0.32143,29671,-768,0.26777,1
31335,-336,0.28573,30055,384,0.30326,1
31271,-64,0.27893,30279,224,0.32397,1
31479,208,0.30103,30455,176,0.34023,1
32039,560,0.36054,30487,32,0.34319,1
31783,-256,0.33333,30327,-160,0.32840,1
31447,-336,0.29763,30199,-128,0.31657,1
31367,-80,0.28913,30551,352,0.34911,1
31239,-128,0.27553,30871,320,0.37869,1
31079,-160,0.25853,30951,80,0.38608,1
31447,368,0.29763,31991,1040,0.48221,1
31143,-304,0.26533,31799,-192,0.46446,1
31207,64,0.27213,32103,304,0.49256,1
31287,80,0.28063,32295,192,0.51031,1
31319,32,0.28403,32647,352,0.54284,1
31111,-208,0.26193,32647,0,0.54284,1
31703,592,0.32483,32535,-112,0.53249,1
31111,-592,0.26193,32727,192,0.55024,1
30615,-496,0.20922,32904,177,0.56660,1
30359,-256,0.18202,33240,336,0.59765,1
30327,-32,0.17862,34040,800,0.67160,1
29911,-416,0.13442,34040,0,0.67160,1
29703,-208,0.11232,34648,608,0.72779,1
30199,496,0.16502,35368,720,0.79434,1
30455,256,0.19222,35672,304,0.82244,1
30583,128,0.20582,35912,240,0.84463,1
30583,0,0.20582,35400,-512,0.79730,1
30567,-16,0.20412,35112,-288,0.77068,1
31527,960,0.30613,35240,128,0.78251,1
32183,656,0.37584,35512,272,0.80765,1
32776,593,0.43885,35832,320,0.83723,1
32984,208,0.46095,36536,704,0.90230,1
32888,-96,0.45075,37481,945,0.98965,1
33144,256,0.47795,37593,112,1.00000,1
33544,400,0.52045,36616,-977,0.90970,1
34504,960,0.62246,35112,-1504,0.77068,1
34536,32,0.62586,33624,-1488,0.63315,1
34360,-176,0.60716,32679,-945,0.54580,1
33368,-992,0.50175,33176,497,0.59174,1
31847,-1521,0.34013,33992,816,0.66716,1
31127,-720,0.26363,34856,864,0.74702,1
31623,496,0.31633,34632,-224,0.72631,1
31399,-224,0.29253,33928,-704,0.66124,1
32455,1056,0.40474,32631,-1297,0.54136,1
32247,-208,0.38264,32151,-480,0.49700,1
32231,-16,0.38094,32103,-48,0.49256,1
31623,-608,0.31633,31687,-416,0.45411,1
31175,-448,0.26873,32423,736,0.52214,1
30759,-416,0.22452,30567,-1856,0.35059,1
30471,-288,0.19392,30375,-192,0.33284,1
30087,-384,0.15312,30839,464,0.37573,1
30791,704,0.22792,31751,912,0.46002,1
31047,256,0.25513,32023,272,0.48517,1
31831,784,0.33843,32423,400,0.52214,1
33288,1457,0.49325,32984,561,0.57399,1
34184,896,0.58846,33368,384,0.60948,1
34792,608,0.65307,34056,688,0.67308,1
34616,-176,0.63436,35496,1440,0.80617,1
34456,-160,0.61736,36424,928,0.89195,1
33704,-752,0.53746,36152,-272,0.86681,1
33016,-688,0.46435,36024,-128,0.85498,1
33304,288,0.49495,33800,-2224,0.64941,1
33672,368,0.53406,32183,-1617,0.49995,1
34184,512,0.58846,30839,-1344,0.37573,1
35304,1120,0.70747,32071,1232,0.48960,1
36056,752,0.78738,32872,801,0.56364,1
36360,304,0.81968,32968,96,0.57251,1
34840,-1520,0.65817,32391,-577,0.51918,1
33608,-1232,0.52726,31463,-928,0.43340,1
33016,-592,0.46435,31031,-432,0.39347,1
32647,-369,0.42514,30887,-144,0.38016,1
32695,48,0.43024,30983,96,0.38904,1
32920,225,0.45415,30919,-64,0.38312,1
32936,16,0.45585,30839,-80,0.37573,1
33272,336,0.49155,30935,96,0.38460,1
33688,416,0.53576,30167,-768,0.31361,1
33784,96,0.54596,30391,224,0.33432,1
33768,-16,0.54426,30599,208,0.35354,1
33688,-80,0.53576,29767,-832,0.27664,1
34232,544,0.59356,29639,-128,0.26481,1
33832,-400,0.55106,28070,-1569,0.11979,1
33928,96,0.56126,28310,240,0.14197,1
34696,768,0.64286,30359,2049,0.33136,1
34648,-48,0.63776,30327,-32,0.32840,1
34472,-176,0.61906,29943,-384,0.29291,1
34392,-80,0.61056,29783,-160,0.27812,1
33736,-656,0.54086,29831,48,0.28256,1
33576,-160,0.52386,30343,512,0.32988,1
33528,-48,0.51875,30679,336,0.36094,1
33704,176,0.53746,30775,96,0.36981,1
34232,528,0.59356,30871,96,0.37869,1
34584,352,0.63096,30487,-384,0.34319,1
34808,224,0.65477,29959,-528,0.29439,1
34952,144,0.67007,29351,-608,0.23819,1
34280,-672,0.59866,29143,-208,0.21897,1
33976,-304,0.56636,28646,-497,0.17303,1
33752,-224,0.54256,30183,1537,0.31509,1
33416,-336,0.50685,30535,352,0.34763,1
32840,-576,0.44565,31303,768,0.41862,1
32695,-145,0.43024,30919,-384,0.38312,1
32984,289,0.46095,31943,1024,0.47777,1
32872,-112,0.44905,31783,-160,0.46298,1
31591,-1281,0.31293,32391,608,0.51918,1
31143,-448,0.26533,32439,48,0.52362,1
31287,144,0.28063,32695,256,0.54728,1
31495,208,0.30273,33000,305,0.57547,1
31063,-432,0.25683,33656,656,0.63610,1
31895,832,0.34523,35672,2016,0.82244,1
31943,48,0.35033,36456,784,0.89491,1
31767,-176,0.33163,35928,-528,0.84610,1
31639,-128,0.31803,35576,-352,0.81357,1
31399,-240,0.29253,35400,-176,0.79730,1
31207,-192,0.27213,35512,112,0.80765,1
31111,-96,0.26193,35208,-304,0.77955,1
31207,96,0.27213,35096,-112,0.76920,1
31127,-80,0.26363,34248,-848,0.69082,1
31287,160,0.28063,34360,112,0.70117,1
32455,1168,0.40474,33976,-384,0.66568,1
32023,-432,0.35884,34136,160,0.68047,1
32135,112,0.37074,34072,-64,0.67455,1
32263,128,0.38434,33896,-176,0.65829,1
32199,-64,0.37754,33704,-192,0.64054,1
32151,-48,0.37244,33720,16,0.64202,1
32247,96,0.38264,33864,144,0.65533,1
32423,176,0.40134,33768,-96,0.64646,1
32888,465,0.45075,33784,16,0.64793,1
33032,144,0.46605,34200,416,0.68639,1
34520,1488,0.62416,33976,-224,0.66568,1
34776,256,0.65137,33176,-800,0.59174,1
34536,-240,0.62586,32631,-545,0.54136,1
34520,-16,0.62416,31831,-800,0.46742,1
34248,-272,0.59526,30951,-880,0.38608,1
34504,256,0.62246,30135,-816,0.31066,1
34904,400,0.66497,29751,-384,0.27516,1
34952,48,0.67007,29559,-192,0.25742,1
34408,-544,0.61226,29447,-112,0.24707,1
33752,-656,0.54256,29751,304,0.27516,1
33336,-416,0.49835,30807,1056,0.37277,1
33288,-48,0.49325,31079,272,0.39791,1
32615,-673,0.42174,30407,-672,0.33580,1
32023,-592,0.35884,30759,352,0.36833,1
32103,80,0.36734,30535,-224,0.34763,1
32071,-32,0.36394,30919,384,0.38312,1
31959,-112,0.35203,31239,320,0.41270,1
31959,0,0.35203,31063,-176,0.39643,1
32215,256,0.37924,31415,352,0.42897,1
32311,96,0.38944,32055,640,0.48812,1
32535,224,0.41324,32599,544,0.53840,1
33304,769,0.49495,33128,529,0.58730,1
33240,-64,0.48815,33976,848,0.66568,1
32455,-785,0.40474,34376,400,0.70265,1
32455,0,0.40474,34312,-64,0.69674,1
31879,-576,0.34353,34120,-192,0.67899,1
32071,192,0.36394,34136,16,0.68047,1
31911,-160,0.34693,33560,-576,0.62723,1
32151,240,0.37244,32711,-849,0.54876,1
32663,512,0.42684,32407,-304,0.52066,1
33192,529,0.48305,32327,-80,0.51326,1
33848,656,0.55276,31479,-848,0.43488,1
34760,912,0.64967,30743,-736,0.36685,1
35352,592,0.71257,30279,-464,0.32397,1
36328,976,0.81628,30167,-112,0.31361,1
36248,-80,0.80778,30007,-160,0.29883,1
35768,-480,0.75677,30135,128,0.31066,1
34696,-1072,0.64286,29959,-176,0.29439,1
33224,-1472,0.48645,29927,-32,0.29143,1
31831,-1393,0.33843,30343,416,0.32988,1
31127,-704,0.26363,32087,1744,0.49108,1
30775,-352,0.22622,33928,1841,0.66124,1
30871,96,0.23643,35416,1488,0.79878,1
31191,320,0.27043,35464,48,0.80322,1
31367,176,0.28913,34072,-1392,0.67455,1
32583,1216,0.41834,33368,-704,0.60948,1
32792,209,0.44055,33128,-240,0.58730,1
33768,976,0.54426,31959,-1169,0.47925,1
33944,176,0.56296,31319,-640,0.42009,1
34024,80,0.57146,31847,528,0.46890,1
33720,-304,0.53916,32135,288,0.49552,1
33704,-16,0.53746,31271,-864,0.41566,1
33640,-64,0.53066,30439,-832,0.33876,1
33016,-624,0.46435,29047,-1392,0.21009,1
33560,544,0.52215,28743,-304,0.18199,1
32503,-1057,0.40984,27990,-753,0.11239,1
32455,-48,0.40474,27718,-272,0.08725,1
32439,-16,0.40304,28614,896,0.17007,1
31543,-896,0.30783,29735,1121,0.27369,1
30775,-768,0.22622,31271,1536,0.41566,1
31303,528,0.28233,32840,1569,0.56068,1
32311,1008,0.38944,33944,1104,0.66272,1
32311,0,0.38944,34776,832,0.73962,1
32167,-144,0.37414,34824,48,0.74406,1
32231,64,0.38094,34536,-288,0.71744,1
32167,-64,0.37414,34568,32,0.72040,1
32199,32,0.37754,34568,0,0.72040,1
32856,657,0.44735,34344,-224,0.69970,1
33032,176,0.46605,34232,-112,0.68934,1
33016,-16,0.46435,33432,-800,0.61540,1
32904,-112,0.45245,33848,416,0.65385,1
32503,-401,0.40984,33640,-208,0.63462,1
32535,32,0.41324,33912,272,0.65977,1
32359,-176,0.39454,33528,-384,0.62427,1
32263,-96,0.38434,34072,544,0.67455,1
32263,0,0.38434,33304,-768,0.60357,1
32471,208,0.40644,33704,400,0.64054,1
32439,-32,0.40304,34648,944,0.72779,1
32071,-368,0.36394,34152,-496,0.68195,1
31415,-656,0.29423,34184,32,0.68491,1
30519,-896,0.19902,33656,-528,0.63610,1
30743,224,0.22282,34328,672,0.69822,1
31303,560,0.28233,33880,-448,0.65681,1
31623,320,0.31633,32920,-960,0.56807,1
32215,592,0.37924,31623,-1297,0.44819,1
32519,304,0.41154,31159,-464,0.40531,1
32711,192,0.43194,31447,288,0.43193,1
33176,465,0.48135,31719,272,0.45707,1
32904,-272,0.45245,31239,-480,0.41270,1
32503,-401,0.40984,30759,-480,0.36833,1
31911,-592,0.34693,30551,-208,0.34911,1
31287,-624,0.28063,30743,192,0.36685,1
32391,1104,0.39794,31255,512,0.41418,1
32487,96,0.40814,31831,576,0.46742,1
33496,1009,0.51535,31815,-16,0.46594,1
33688,192,0.53576,31991,176,0.48221,1
33384,-304,0.50345,32455,464,0.52509,1
33240,-144,0.48815,32535,80,0.53249,1
32808,-432,0.44225,32471,-64,0.52657,1
32599,-209,0.42004,33416,945,0.61392,1
32087,-512,0.36564,33384,-32,0.61096,1
31271,-816,0.27893,33096,-288,0.58434,1
31639,368,0.31803,33672,576,0.63758,1
31927,288,0.34863,33544,-128,0.62575,1
32359,432,0.39454,32808,-736,0.55772,1
32663,304,0.42684,31959,-849,0.47925,1
33288,625,0.49325,30935,-1024,0.38460,1
33592,304,0.52556,30343,-592,0.32988,1
34184,592,0.58846,29319,-1024,0.23523,1
34344,160,0.60546,29287,-32,0.23228,1
34280,-64,0.59866,29879,592,0.28700,1
33832,-448,0.55106,31415,1536,0.42897,1
33640,-192,0.53066,30871,-544,0.37869,1
32663,-977,0.42684,31383,512,0.42601,1
32487,-176,0.40814,32151,768,0.49700,1
31783,-704,0.33333,32391,240,0.51918,1
31415,-368,0.29423,32263,-128,0.50735,1
31463,48,0.29933,32167,-96,0.49847,1
31319,-144,0.28403,31767,-400,0.46150,1
30759,-560,0.22452,31799,32,0.46446,1
30967,208,0.24663,32567,768,0.53545,1
31287,320,0.28063,32968,401,0.57251,1
31591,304,0.31293,33320,352,0.60505,1
31383,-208,0.29083,33640,320,0.63462,1
30839,-544,0.23303,33832,192,0.65237,1
30679,-160,0.21602,33320,-512,0.60505,1
30887,208,0.23813,32359,-961,0.51622,1
31527,640,0.30613,30967,-1392,0.38756,1
31911,384,0.34693,30663,-304,0.35946,1
32279,368,0.38604,29975,-688,0.29587,1
32423,144,0.40134,29511,-464,0.25298,1
32263,-160,0.38434,29527,16,0.25446,1
32055,-208,0.36224,30007,480,0.29883,1
31895,-160,0.34523,30983,976,0.38904,1
31383,-512,0.29083,32936,1953,0.56955,1
31127,-256,0.26363,33640,704,0.63462,1
30359,-768,0.18202,33320,-320,0.60505,1
30055,-304,0.14972,33640,320,0.63462,1
30199,144,0.16502,33960,320,0.66420,1
30567,368,0.20412,33064,-896,0.58138,1
31127,560,0.26363,32343,-721,0.51474,1
31831,704,0.33843,31895,-448,0.47333,1
32615,784,0.42174,31255,-640,0.41418,1
33080,465,0.47115,32071,816,0.48960,1
33160,80,0.47965,31799,-272,0.46446,1
33128,-32,0.47625,31623,-176,0.44819,1
32343,-785,0.39284,31143,-480,0.40383,1
30951,-1392,0.24493,30887,-256,0.38016,1
30791,-160,0.22792,30599,-288,0.35354,1
31399,608,0.29253,30535,-64,0.34763,1
31927,528,0.34863,31463,928,0.43340,1
31895,-32,0.34523,32904,1441,0.56660,1
31671,-224,0.32143,33336,432,0.60653,1
31591,-80,0.31293,33176,-160,0.59174,1
31863,272,0.34183,32615,-561,0.53988,1
31527,-336,0.30613,32231,-384,0.50439,1
31239,-288,0.27553,32583,352,0.53693,1
31207,-32,0.27213,32375,-208,0.51770,1
30999,-208,0.25003,32471,96,0.52657,1
30967,-32,0.24663,32391,-80,0.51918,1
30935,-32,0.24323,32503,112,0.52953,1
30567,-368,0.20412,33176,673,0.59174,1
30631,64,0.21092,33912,736,0.65977,1
30711,80,0.21942,34632,720,0.72631,1
30871,160,0.23643,35256,624,0.78399,1
30567,-304,0.20412,35240,-16,0.78251,1
30919,352,0.24153,34920,-320,0.75293,1
30823,-96,0.23133,34504,-416,0.71448,1
30855,32,0.23473,34120,-384,0.67899,1
31015,160,0.25173,34472,352,0.71153,1
31415,400,0.29423,34456,-16,0.71005,1
31767,352,0.33163,35848,1392,0.83871,1
31943,176,0.35033,35912,64,0.84463,1
32375,432,0.39624,35016,-896,0.76181,1
32792,417,0.44055,33864,-1152,0.65533,1
32840,48,0.44565,33016,-848,0.57695,1
33368,528,0.50175,32327,-689,0.51326,1
33672,304,0.53406,31559,-768,0.44228,1
33784,112,0.54596,31159,-400,0.40531,1
33128,-656,0.47625,31271,112,0.41566,1
32551,-577,0.41494,31335,64,0.42157,1
32503,-48,0.40984,30967,-368,0.38756,1
31959,-544,0.35203,30247,-720,0.32101,1
31911,-48,0.34693,30839,592,0.37573,1
31719,-192,0.32653,31591,752,0.44524,1
31287,-432,0.28063,31863,272,0.47038,1
30391,-896,0.18542,31767,-96,0.46150,1
30919,528,0.24153,32792,1025,0.55624,1
30727,-192,0.22112,33144,352,0.58878,1
31751,1024,0.32993,33016,-128,0.57695,1
31559,-192,0.30953,34024,1008,0.67012,1
31751,192,0.32993,33880,-144,0.65681,1
31975,224,0.35373,34456,576,0.71005,1
32423,448,0.40134,34696,240,0.73223,1
32567,144,0.41664,34104,-592,0.67751,1
32904,337,0.45245,33592,-512,0.63019,1
33176,272,0.48135,33112,-480,0.58582,1
32631,-545,0.42344,32727,-385,0.55024,1
32984,353,0.46095,31767,-960,0.46150,1
32984,0,0.37378,32840,0,0.50942,0
32711,-273,0.33070,32984,144,0.52348,0
32888,177,0.35863,33064,80,0.53129,0
33128,240,0.39650,33432,368,0.56722,0
33608,480,0.47223,32695,-737,0.49527,0
34680,1072,0.64137,31879,-816,0.41560,0
33496,-1184,0.45456,31367,-512,0.36562,0
32888,-608,0.35863,31095,-272,0.33906,0
32327,-561,0.27012,31687,592,0.39686,0
31495,-832,0.13885,32599,912,0.48589,0
31239,-256,0.09845,34536,1937,0.67500,0
31543,304,0.14642,34264,-272,0.64844,0
31959,416,0.21205,33928,-336,0.61564,0
32423,464,0.28526,32647,-1281,0.49058,0
32487,64,0.29536,33496,849,0.57346,0
32920,433,0.36368,31303,-2193,0.35937,0
33800,880,0.50252,31239,-64,0.35312,0
33976,176,0.53029,30247,-992,0.25627,0
34008,32,0.53534,31015,768,0.33125,0
34136,128,0.55554,31671,656,0.39529,0
33928,-208,0.52272,31895,224,0.41716,0
33256,-672,0.41669,32423,528,0.46871,0
32503,-753,0.29789,32904,481,0.51567,0
32343,-160,0.27264,33208,304,0.54535,0
31879,-464,0.19943,33704,496,0.59377,0
32231,352,0.25497,34536,832,0.67500,0
32151,-80,0.24235,35320,784,0.75154,0
32279,128,0.26254,35640,320,0.78278,0
32599,320,0.31303,36280,640,0.84526,0
32599,0,0.31303,35288,-992,0.74841,0
32423,-176,0.28526,34088,-1200,0.63126,0
33000,577,0.37630,34328,240,0.65469,0
32103,-897,0.23477,33592,-736,0.58284,0
31735,-368,0.17671,33928,336,0.61564,0
31399,-336,0.12370,34376,448,0.65938,0
31943,544,0.20953,34248,-128,0.64688,0
33096,1153,0.39145,34280,32,0.65000,0
34264,1168,0.57573,32231,-2049,0.44997,0
35608,1344,0.78779,30823,-1408,0.31251,0
36744,1136,0.96702,29335,-1488,0.16724,0
36953,209,1.00000,28342,-993,0.07029,0
36520,-433,0.93168,27622,-720,0.00000,0
35672,-848,0.79789,28550,928,0.09060,0
33976,-1696,0.53029,30679,2129,0.29845,0
32679,-1297,0.32565,32695,2016,0.49527,0
31703,-976,0.17166,34232,1537,0.64532,0
31223,-480,0.09593,35288,1056,0.74841,0
30615,-608,0.00000,35976,688,0.81558,0
31271,656,0.10350,36040,64,0.82183,0
31767,496,0.18176,35672,-368,0.78590,0
32151,384,0.24235,35160,-512,0.73592,0
32359,208,0.27517,35064,-96,0.72654,0
33048,689,0.38388,35384,320,0.75779,0
33320,272,0.42679,35256,-128,0.74529,0
33864,544,0.51262,34952,-304,0.71561,0
34040,176,0.54039,34568,-384,0.67812,0
34520,480,0.61613,34424,-144,0.66406,0
35208,688,0.72468,34504,80,0.67187,0
35640,432,0.79284,34904,400,0.71092,0
35160,-480,0.71710,35272,368,0.74685,0
35016,-144,0.69438,35192,-80,0.73904,0
35176,160,0.71963,34936,-256,0.71405,0
35016,-160,0.69438,34040,-896,0.62657,0
34744,-272,0.65147,33464,-576,0.57034,0
34344,-400,0.58836,34584,1120,0.67968,0
33512,-832,0.45708,34120,-464,0.63438,0
32776,-736,0.34096,33640,-480,0.58752,0
32423,-353,0.28526,33672,32,0.59065,0
32135,-288,0.23982,34712,1040,0.69218,0
31959,-176,0.21205,35752,1040,0.79371,0
32023,64,0.22215,35912,160,0.80933,0
32023,0,0.22215,35624,-288,0.78122,0
32247,224,0.25749,35192,-432,0.73904,0
31783,-464,0.18429,34616,-576,0.68281,0
32167,384,0.24487,34616,0,0.68281,0
32183,16,0.24740,33976,-640,0.62033,0
32776,593,0.34096,33208,-768,0.54535,0
32151,-625,0.24235,32199,-1009,0.44684,0
32888,737,0.35863,32295,96,0.45621,0
32904,16,0.36115,32055,-240,0.43278,0
32888,-16,0.35863,32039,-16,0.43122,0
33128,240,0.39650,32503,464,0.47652,0
33160,32,0.40155,32968,465,0.52192,0
33368,208,0.43436,33688,720,0.59221,0
33784,416,0.50000,34184,496,0.64063,0
33368,-416,0.43436,34808,624,0.70155,0
33064,-304,0.38640,33768,-1040,0.60002,0
33064,0,0.38640,33432,-336,0.56722,0
32695,-369,0.32818,33080,-352,0.53285,0
32263,-432,0.26002,32599,-481,0.48589,0
32311,48,0.26759,32295,-304,0.45621,0
33160,849,0.40155,32968,673,0.52192,0
33912,752,0.52020,33928,960,0.61564,0
34168,256,0.56059,34312,384,0.65313,0
34632,464,0.63380,33816,-496,0.60471,0
34456,-176,0.60603,33704,-112,0.59377,0
34664,208,0.63885,33832,128,0.60627,0
33464,-1200,0.44951,33288,-544,0.55316,0
33992,528,0.53282,33480,192,0.57190,0
33624,-368,0.47476,34296,816,0.65157,0
32952,-672,0.36873,35256,960,0.74529,0
33192,240,0.40660,35944,688,0.81246,0
32984,-208,0.37378,35080,-864,0.72811,0
32695,-289,0.32818,34296,-784,0.65157,0
32711,16,0.33070,34376,80,0.65938,0
32776,65,0.34096,34088,-288,0.63126,0
32727,-49,0.33323,33576,-512,0.58128,0
33352,625,0.43184,33368,-208,0.56097,0
33656,304,0.47980,33400,32,0.56409,0
33848,192,0.51010,33016,-384,0.52660,0
33960,112,0.52777,32920,-96,0.51723,0
32904,-1056,0.36115,32551,-369,0.48121,0
33288,384,0.42174,31943,-608,0.42185,0
33624,336,0.47476,30663,-1280,0.29689,0
33576,-48,0.46718,30551,-112,0.28595,0
33464,-112,0.44951,30727,176,0.30313,0
35080,1616,0.70448,31239,512,0.35312,0
35272,192,0.73477,31991,752,0.42654,0
35992,720,0.84837,32888,897,0.51411,0
35032,-960,0.69691,33848,960,0.60783,0
33912,-1120,0.52020,34440,592,0.66563,0
32872,-1040,0.35611,36072,1632,0.82495,0
32247,-625,0.25749,36312,240,0.84838,0
31863,-384,0.19691,36200,-112,0.83745,0
33080,1217,0.38892,35976,-224,0.81558,0
33736,656,0.49243,35944,-32,0.81246,0
33448,-288,0.44699,35160,-784,0.73592,0
33288,-160,0.42174,34648,-512,0.68593,0
33000,-288,0.37630,34184,-464,0.64063,0
33080,80,0.38892,32567,-1617,0.48277,0
33464,384,0.44951,31527,-1040,0.38124,0
34216,752,0.56816,30519,-1008,0.28283,0
34872,656,0.67166,30487,-32,0.27970,0
34904,32,0.67671,30631,144,0.29376,0
34856,-48,0.66914,31383,752,0.36718,0
34856,0,0.66914,32327,944,0.45934,0
34120,-736,0.55301,33032,705,0.52817,0
33432,-688,0.44446,33176,144,0.54222,0
33416,-16,0.44194,33080,-96,0.53285,0
33560,144,0.46466,33064,-16,0.53129,0
32487,-1073,0.29536,33336,272,0.55784,0
32215,-272,0.25245,33752,416,0.59846,0
31207,-1008,0.09340,34632,880,0.68437,0
31447,240,0.13127,35496,864,0.76872,0
31511,64,0.14137,35624,128,0.78122,0
31623,112,0.15904,36520,896,0.86869,0
31655,32,0.16409,36632,112,0.87963,0
32567,912,0.30798,36296,-336,0.84682,0
33256,689,0.41669,35144,-1152,0.73436,0
33448,192,0.44699,33592,-1552,0.58284,0
34120,672,0.55301,33768,176,0.60002,0
34200,80,0.56564,33560,-208,0.57971,0
33752,-448,0.49495,33640,80,0.58752,0
33464,-288,0.44951,34456,816,0.66719,0
33208,-256,0.40912,35256,800,0.74529,0
33096,-112,0.39145,35640,384,0.78278,0
33192,96,0.40660,36088,448,0.82652,0
33192,0,0.40660,37193,1105,0.93439,0
32439,-753,0.28779,37337,144,0.94845,0
32776,337,0.34096,35944,-1393,0.81246,0
33256,480,0.41669,34456,-1488,0.66719,0
33480,224,0.45204,33384,-1072,0.56253,0
33176,-304,0.40407,32663,-721,0.49214,0
32167,-1009,0.24487,32455,-208,0.47183,0
31463,-704,0.13380,32711,256,0.49683,0
31607,144,0.15652,33384,673,0.56253,0
32119,512,0.23730,33192,-192,0.54379,0
32711,592,0.33070,32727,-465,0.49839,0
33128,417,0.39650,32920,193,0.51723,0
34104,976,0.55049,32695,-225,0.49527,0
34824,720,0.66409,32455,-240,0.47183,0
34408,-416,0.59845,32327,-128,0.45934,0
34328,-80,0.58583,32663,336,0.49214,0
34504,176,0.61360,32727,64,0.49839,0
34488,-16,0.61108,32535,-192,0.47964,0
34168,-320,0.56059,32263,-272,0.45309,0
33928,-240,0.52272,32215,-48,0.44840,0
33992,64,0.53282,32583,368,0.48433,0
34136,144,0.55554,33016,433,0.52660,0
34472,336,0.60855,33512,496,0.57503,0
34264,-208,0.57573,34056,544,0.62814,0
34088,-176,0.54796,34184,128,0.64063,0
33784,-304,0.50000,34088,-96,0.63126,0
33688,-96,0.48485,34248,160,0.64688,0
32888,-800,0.35863,34280,32,0.65000,0
33240,352,0.41417,34504,224,0.67187,0
33384,144,0.43689,34792,288,0.69999,0
33832,448,0.50757,34568,-224,0.67812,0
34248,416,0.57321,34152,-416,0.63751,0
34952,704,0.68429,33896,-256,0.61252,0
34968,16,0.68681,33800,-96,0.60314,0
34760,-208,0.65399,33736,-64,0.59690,0
34744,-16,0.65147,33304,-432,0.55472,0
35128,384,0.71205,32359,-945,0.46246,0
35064,-64,0.70196,31191,-1168,0.34843,0
34936,-128,0.68176,29623,-1568,0.19535,0
34664,-272,0.63885,28695,-928,0.10475,0
34456,-208,0.60603,28550,-145,0.09060,0
34568,112,0.62370,28999,449,0.13443,0
34328,-240,0.58583,30135,1136,0.24534,0
33560,-768,0.46466,31159,1024,0.34531,0
32695,-865,0.32818,32327,1168,0.45934,0
31559,-1136,0.14894,32487,160,0.47496,0
31495,-64,0.13885,33336,849,0.55784,0
31239,-256,0.09845,33608,272,0.58440,0
31495,256,0.13885,34088,480,0.63126,0
32792,1297,0.34348,34344,256,0.65625,0
33272,480,0.41922,34168,-176,0.63907,0
33400,128,0.43941,33752,-416,0.59846,0
33416,16,0.44194,33928,176,0.61564,0
33608,192,0.47223,33912,-16,0.61408,0
33528,-80,0.45961,34152,240,0.63751,0
33352,-176,0.43184,34776,624,0.69843,0
33864,512,0.51262,35384,608,0.75779,0
34376,512,0.59340,35256,-128,0.74529,0
34248,-128,0.57321,35304,48,0.74998,0
34200,-48,0.56564,34840,-464,0.70468,0
34360,160,0.59088,34104,-736,0.63282,0
34696,336,0.64389,32952,-1152,0.52036,0
34648,-48,0.63632,32023,-929,0.42966,0
33880,-768,0.51515,31527,-496,0.38124,0
33352,-528,0.43184,32327,800,0.45934,0
33352,0,0.43184,33400,1073,0.56409,0
33784,432,0.50000,33672,272,0.59065,0
34008,224,0.53534,33784,112,0.60158,0
34808,800,0.66157,34008,224,0.62345,0
34760,-48,0.65399,34120,112,0.63438,0
33896,-864,0.51767,34792,672,0.69999,0
32615,-1281,0.31556,35176,384,0.73748,0
31847,-768,0.19438,34328,-848,0.65469,0
31735,-112,0.17671,35064,736,0.72654,0
31703,-32,0.17166,35064,0,0.72654,0
32199,496,0.24992,33880,-1184,0.61095,0
32872,673,0.35611,33720,-160,0.59533,0
33112,240,0.39397,33368,-352,0.56097,0
33656,544,0.47980,33256,-112,0.55003,0
33784,128,0.50000,33736,480,0.59690,0
33336,-448,0.42932,34392,656,0.66094,0
33304,-32,0.42427,34264,-128,0.64844,0
33304,0,0.42427,34216,-48,0.64376,0
33208,-96,0.40912,34200,-16,0.64219,0
32840,-368,0.35106,34072,-128,0.62970,0
32631,-209,0.31808,33624,-448,0.58596,0
32647,16,0.32061,34728,1104,0.69374,0
32840,193,0.35106,34264,-464,0.64844,0
33304,464,0.42427,33896,-368,0.61252,0
33752,448,0.49495,32679,-1217,0.49370,0
34376,624,0.59340,32583,-96,0.48433,0
33960,-416,0.52777,32183,-400,0.44528,0
34136,176,0.55554,31975,-208,0.42497,0
33992,-144,0.53282,32535,560,0.47964,0
33784,-208,0.50000,33224,689,0.54691,0
33016,-768,0.37883,33832,608,0.60627,0
33256,240,0.41669,33752,-80,0.59846,0
33000,-256,0.37630,33528,-224,0.57659,0
32824,-176,0.34853,33464,-64,0.57034,0
32872,48,0.35611,33032,-432,0.52817,0
32984,112,0.37378,32567,-465,0.48277,0
33224,240,0.41164,32904,337,0.51567,0
33304,80,0.42427,32808,-96,0.50630,0
33800,496,0.50252,33368,560,0.56097,0
34248,448,0.57321,33624,256,0.58596,0
34264,16,0.57573,33480,-144,0.57190,0
34536,272,0.61865,33704,224,0.59377,0
34808,272,0.66157,33736,32,0.59690,0
34216,-592,0.56816,33992,256,0.62189,0
33528,-688,0.45961,34488,496,0.67031,0
33352,-176,0.43184,34536,48,0.67500,0
33672,320,0.48233,34184,-352,0.64063,0
34264,592,0.57573,34056,-128,0.62814,0
34648,384,0.63632,34056,0,0.62814,0
34952,304,0.68429,33544,-512,0.57815,0
34984,32,0.68933,32407,-1137,0.46715,0
34280,-704,0.57826,33528,1121,0.57659,0
33816,-464,0.50505,32503,-1025,0.47652,0
34136,320,0.55554,32872,369,0.51255,0
35112,976,0.70953,31783,-1089,0.40623,0
34904,-208,0.67671,31943,160,0.42185,0
35096,192,0.70701,31543,-400,0.38280,0
34872,-224,0.67166,31031,-512,0.33281,0
34296,-576,0.58078,30823,-208,0.31251,0
34216,-80,0.56816,31239,416,0.35312,0
33960,-256,0.52777,31575,336,0.38592,0
33912,-48,0.52020,31175,-400,0.34687,0
33960,48,0.52777,31127,-48,0.34218,0
34008,48,0.53534,31783,656,0.40623,0
33320,-688,0.42679,32583,800,0.48433,0
32776,-544,0.34096,33208,625,0.54535,0
32615,-161,0.31556,33240,32,0.54847,0
32583,-32,0.31051,33240,0,0.54847,0
32519,-64,0.30041,33176,-64,0.54222,0
32327,-192,0.27012,32567,-609,0.48277,0
32055,-272,0.22720,32231,-336,0.44997,0
31959,-96,0.21205,32151,-80,0.44216,0
32071,112,0.22973,32151,0,0.44216,0
32455,384,0.29031,32247,96,0.45153,0
32375,-80,0.27769,32343,96,0.46090,0
32968,593,0.37125,32711,368,0.49683,0
33432,464,0.44446,33192,481,0.54379,0
33320,-112,0.42679,33512,320,0.57503,0
33256,-64,0.41669,33464,-48,0.57034,0
32968,-288,0.37125,33320,-144,0.55628,0
33128,160,0.39650,33832,512,0.60627,0
33416,288,0.44194,34296,464,0.65157,0
33624,208,0.47476,34680,384,0.68906,0
33800,176,0.50252,35016,336,0.72186,0
33944,144,0.52524,35624,608,0.78122,0
33992,48,0.53282,35304,-320,0.74998,0
34024,32,0.53787,34632,-672,0.68437,0
34280,256,0.57826,34760,128,0.69687,0
34312,32,0.58331,34760,0,0.69687,0
34264,-48,0.57573,34600,-160,0.68125,0
34184,-80,0.56311,34408,-192,0.66250,0
33832,-352,0.50757,34264,-144,0.64844,0
33464,-368,0.44951,33928,-336,0.61564,0
33448,-16,0.44699,34072,144,0.62970,0
33336,-112,0.42932,34424,352,0.66406,0
33720,384,0.48990,34808,384,0.70155,0
33432,-288,0.44446,34968,160,0.71717,0
32567,-865,0.30798,34824,-144,0.70311,0
32247,-320,0.25749,34760,-64,0.69687,0
32135,-112,0.23982,34728,-32,0.69374,0
32103,-32,0.23477,34264,-464,0.64844,0
32808,705,0.34601,33864,-400,0.60939,0
33400,592,0.43941,33848,-16,0.60783,0
33800,400,0.50252,34008,160,0.62345,0
34040,240,0.54039,34408,400,0.66250,0
34072,32,0.54544,35368,960,0.75622,0
34216,144,0.56816,34072,-1296,0.62970,0
33592,-624,0.46971,33256,-816,0.55003,0
34088,496,0.54796,34504,1248,0.67187,0
34232,144,0.57068,34872,368,0.70780,0
34696,464,0.64389,34936,64,0.71405,0
34984,288,0.68933,35000,64,0.72030,0
34792,-192,0.65904,35176,176,0.73748,0
34360,-432,0.59088,35176,0,0.73748,0
33816,-544,0.50505,34984,-192,0.71873,0
33336,-480,0.42932,35048,64,0.72498,0
34184,848,0.56311,35048,0,0.72498,0
33400,-784,0.43941,35112,64,0.73123,0
33208,-192,0.40912,34840,-272,0.70468,0
32439,-769,0.28779,34440,-400,0.66563,0
33256,817,0.41669,34088,-352,0.63126,0
33304,48,0.42427,34248,160,0.64688,0
33112,-192,0.39397,33512,-736,0.57503,0
32936,-176,0.36620,33144,-368,0.53910,0
32968,32,0.37125,32279,-865,0.45465,0
32279,-689,0.26254,31687,-592,0.39686,0
33128,849,0.39650,31223,-464,0.35156,0
32952,-176,0.36873,31623,400,0.39061,0
33464,512,0.44951,32695,1072,0.49527,0
33944,480,0.52524,33496,801,0.57346,0
34376,432,0.59340,34040,544,0.62657,0
34408,32,0.59845,34488,448,0.67031,0
34072,-336,0.54544,34840,352,0.70468,0
33800,-272,0.50252,35400,560,0.75935,0
33928,128,0.52272,35112,-288,0.73123,0
34072,144,0.54544,34584,-528,0.67968,0
33592,-480,0.46971,33640,-944,0.58752,0
33032,-560,0.38135,32968,-672,0.52192,0
32679,-353,0.32565,32311,-657,0.45778,0
33688,1009,0.48485,34056,1745,0.62814,0
32856,-832,0.35358,33480,-576,0.57190,0
33224,368,0.41164,33208,-272,0.54535,0
33320,96,0.42679,33096,-112,0.53441,0
33320,0,0.42679,33128,32,0.53754,0
33176,-144,0.40407,33080,-48,0.53285,0
33160,-16,0.40155,32952,-128,0.52036,0
33160,0,0.40155,32904,-48,0.51567,0
33288,128,0.42174,32343,-561,0.46090,0
33480,192,0.45204,31799,-544,0.40779,0
33976,496,0.53029,31383,-416,0.36718,0
33240,-736,0.41417,31447,64,0.37343,0
32519,-721,0.30041,31431,-16,0.37186,0
33464,945,0.44951,31415,-16,0.37030,0
33448,-16,0.44699,32199,784,0.44684,0
33816,368,0.50505,32119,-80,0.43903,0
33608,-208,0.47223,31591,-528,0.38748,0
34456,848,0.60603,30663,-928,0.29689,0
34392,-64,0.59593,31543,880,0.38280,0
34616,224,0.63127,32840,1297,0.50942,0
34744,128,0.65147,33592,752,0.58284,0
34472,-272,0.60855,33512,-80,0.57503,0
34040,-432,0.54039,33880,368,0.61095,0
33624,-416,0.47476,34600,720,0.68125,0
33176,-448,0.40407,35416,816,0.76091,0
32872,-304,0.35611,36312,896,0.84838,0
32952,80,0.36873,37113,801,0.92658,0
32471,-481,0.29284,37673,560,0.98126,0
33448,977,0.44699,37865,192,1.00000,0
33560,112,0.46466,37833,-32,0.99688,0
33336,-224,0.42932,37273,-560,0.94220,0
33736,400,0.49243,36921,-352,0.90784,0
33864,128,0.51262,36552,-369,0.87181,0
33832,-32,0.50757,35464,-1088,0.76560,0
33976,144,0.53029,35400,-64,0.75935,0
34408,432,0.59845,33688,-1712,0.59221,0
34472,64,0.60855,33160,-528,0.54066,0
34712,240,0.64642,32840,-320,0.50942,0
34968,256,0.68681,32808,-32,0.50630,0
35000,32,0.69186,32455,-353,0.47183,0
34808,-192,0.66157,32343,-112,0.46090,0
34664,-144,0.63885,32215,-128,0.44840,0
34248,-416,0.57321,32711,496,0.49683,0
34168,-80,0.56059,32840,129,0.50942,0
34600,432,0.62875,33672,832,0.59065,0
34680,80,0.64137,33688,16,0.59221,0
34520,-160,0.61613,33752,64,0.59846,0
34312,-208,0.58331,33816,64,0.60471,0
33880,-432,0.51515,33928,112,0.61564,0
33288,-592,0.42174,34440,512,0.66563,0
32824,-464,0.34853,34648,208,0.68593,0
32199,-625,0.24992,35320,672,0.75154,0
32039,-160,0.22468,34776,-544,0.69843,0
32295,256,0.26507,35288,512,0.74841,0
32968,673,0.37125,35368,80,0.75622,0
33864,896,0.51262,35480,112,0.76716,0
34904,1040,0.67671,35992,512,0.81714,0
34440,-464,0.60350,35608,-384,0.77965,0
34520,80,0.61613,35096,-512,0.72967,0
33208,-1312,0.40912,34584,-512,0.67968,0
33528,320,0.45961,34760,176,0.69687,0
33416,-112,0.44194,34440,-320,0.66563,0
33096,-320,0.39145,34072,-368,0.62970,0
34008,912,0.53534,34504,432,0.67187,0
33000,-1008,0.37630,33896,-608,0.61252,0
32856,-144,0.35358,33576,-320,0.58128,0
33016,160,0.37883,33512,-64,0.57503,0
33192,176,0.40660,33864,352,0.60939,0
32840,-352,0.35106,32567,-1297,0.48277,0
33208,368,0.40912,32968,401,0.52192,0
33176,-32,0.40407,32711,-257,0.49683,0
32503,-673,0.29789,32792,81,0.50473,0
31959,-544,0.21205,32503,-289,0.47652,0
32407,448,0.28274,32279,-224,0.45465,0
32711,304,0.33070,32263,-16,0.45309,0
33320,609,0.42679,32423,160,0.46871,0
32391,-929,0.28021,32615,192,0.48745,0
32567,176,0.30798,32615,0,0.48745,0
32936,369,0.36620,32599,-16,0.48589,0
33192,256,0.40660,33256,657,0.55003,0
33192,0,0.40660,33576,320,0.58128,0
34296,1104,0.58078,33672,96,0.59065,0
34584,288,0.62622,33448,-224,0.56878,0
34712,128,0.64642,33176,-272,0.54222,0
34920,208,0.67924,32599,-577,0.48589,0
34536,-384,0.61865,32103,-496,0.43747,0
35672,1136,0.79789,31607,-496,0.38905,0
35960,288,0.84333,31159,-448,0.34531,0
35624,-336,0.79031,31255,96,0.35468,0
35320,-304,0.74235,31335,80,0.36249,0
34856,-464,0.66914,31655,320,0.39373,0
34712,-144,0.64642,32487,832,0.47496,0
34184,-528,0.56311,32872,385,0.51255,0
33416,-768,0.44194,32984,112,0.52348,0
32487,-929,0.29536,33016,32,0.52660,0
32663,176,0.32313,33400,384,0.56409,0
32551,-112,0.30546,33640,240,0.58752,0
32583,32,0.31051,33688,48,0.59221,0
32183,-400,0.24740,33608,-80,0.58440,0
32711,528,0.33070,33464,-144,0.57034,0
32439,-272,0.28779,32952,-512,0.52036,0
32327,-112,0.27012,33000,48,0.52504,0
32167,-160,0.24487,33096,96,0.53441,0
31863,-304,0.19691,33368,272,0.56097,0
31783,-80,0.18429,33304,-64,0.55472,0
31831,48,0.19186,33176,-128,0.54222,0
31751,-80,0.17924,32631,-545,0.48902,0
31911,160,0.20448,33800,1169,0.60314,0
32103,192,0.23477,34536,736,0.67500,0
32199,96,0.24992,35080,544,0.72811,0
32359,160,0.27517,35608,528,0.77965,0
33080,721,0.38892,35176,-432,0.73748,0
33752,672,0.49495,35672,496,0.78590,0
34264,512,0.57573,34584,-1088,0.67968,0
34616,352,0.63127,34088,-496,0.63126,0
34824,208,0.66409,33224,-864,0.54691,0
34984,160,0.68933,33096,-128,0.53441,0
34856,-128,0.66914,32215,-881,0.44840,0
34360,-496,0.59088,30743,-1472,0.30470,0
34168,-192,0.56059,29783,-960,0.21097,0
33624,-544,0.47476,29191,-592,0.15318,0
34584,960,0.62622,29527,336,0.18598,0
35544,960,0.77769,30023,496,0.23440,0
34792,-752,0.65904,30663,640,0.29689,0
33656,-1136,0.47980,31207,544,0.35000,0
32615,-1041,0.31556,31623,416,0.39061,0
31191,-1424,0.09088,32007,384,0.42810,0
31495,304,0.13885,32487,480,0.47496,0
31431,-64,0.12875,33192,705,0.54379,0
31719,288,0.17419,33928,736,0.61564,0
32007,288,0.21963,33976,48,0.62033,0
32455,448,0.29031,34008,32,0.62345,0
32487,32,0.29536,34104,96,0.63282,0
32872,385,0.35611,35272,1168,0.74685,0
33048,176,0.38388,34984,-288,0.71873,0
33320,272,0.42679,34968,-16,0.71717,0
34264,944,0.57573,35528,560,0.77184,0
34536,272,0.61865,35768,240,0.79527,0
33944,-592,0.52524,35352,-416,0.75466,0
35032,0,0.69041,34168,0,0.69372,1
34648,-384,0.62694,33496,-672,0.58741,1
34600,-48,0.61901,33736,240,0.62538,1
34648,48,0.62694,34040,304,0.67347,1
34840,192,0.65868,33464,-576,0.58234,1
35000,160,0.68512,33304,-160,0.55703,1
34712,-288,0.63752,33128,-176,0.52919,1
34744,32,0.64281,33592,464,0.60259,1
34728,-16,0.64017,33752,160,0.62791,1
34664,-64,0.62959,33880,128,0.64816,1
34488,-176,0.60050,34264,384,0.70891,1
34376,-112,0.58198,34264,0,0.70891,1
34184,-192,0.55025,33944,-320,0.65828,1
34040,-144,0.52645,33048,-896,0.51653,1
34232,192,0.55818,33144,96,0.53172,1
34472,240,0.59785,32872,-272,0.48869,1
34632,160,0.62430,32936,64,0.49881,1
34072,-560,0.53174,33288,352,0.55450,1
34104,32,0.53702,33336,48,0.56209,1
33944,-160,0.51058,33672,336,0.61525,1
33912,-32,0.50529,34520,848,0.74941,1
34216,304,0.55554,34904,384,0.81016,1
34264,48,0.56347,34760,-144,0.78738,1
34344,80,0.57669,34504,-256,0.74688,1
34360,16,0.57934,34312,-192,0.71650,1
33912,-448,0.50529,34440,128,0.73675,1
34168,256,0.54760,34568,128,0.75700,1
34216,48,0.55554,34440,-128,0.73675,1
34376,160,0.58198,34504,64,0.74688,1
33832,-544,0.49207,34008,-496,0.66841,1
34488,656,0.60050,34072,64,0.67853,1
34712,224,0.63752,33688,-384,0.61778,1
34824,112,0.65603,33640,-48,0.61019,1
35608,784,0.78562,33880,240,0.64816,1
35592,-16,0.78298,33432,-448,0.57728,1
34552,-1040,0.61107,32487,-945,0.42778,1
34280,-272,0.56612,34296,1809,0.71397,1
33336,-944,0.41008,34872,576,0.80509,1
33032,-304,0.35983,35160,288,0.85066,1
32872,-160,0.33339,34792,-368,0.79244,1
32615,-257,0.29091,34280,-512,0.71144,1
32936,321,0.34397,34760,480,0.78738,1
33144,208,0.37835,34840,80,0.80003,1
33048,-96,0.36248,34584,-256,0.75953,1
33256,208,0.39686,35576,992,0.91647,1
33384,128,0.41802,35416,-160,0.89116,1
33608,224,0.45504,35480,64,0.90128,1
33800,192,0.48678,34696,-784,0.77725,1
33992,192,0.51851,35176,480,0.85319,1
34136,144,0.54231,34904,-272,0.81016,1
34344,208,0.57669,34488,-416,0.74434,1
34296,-48,0.56876,34312,-176,0.71650,1
34616,320,0.62165,34472,160,0.74181,1
35240,624,0.72479,34696,224,0.77725,1
35576,336,0.78033,33976,-720,0.66334,1
36360,784,0.90992,33960,-16,0.66081,1
36905,545,1.00000,32936,-1024,0.49881,1
36696,-209,0.96545,32952,16,0.50134,1
36632,-64,0.95488,33608,656,0.60513,1
36120,-512,0.87025,34504,896,0.74688,1
35688,-432,0.79884,35480,976,0.90128,1
35144,-544,0.70893,35432,-48,0.89369,1
33752,-1392,0.47884,34824,-608,0.79750,1
33032,-720,0.35983,33912,-912,0.65322,1
32792,-240,0.32017,33496,-416,0.58741,1
32503,-289,0.27240,33288,-208,0.55450,1
32679,176,0.30149,33624,336,0.60766,1
32792,113,0.32017,33624,0,0.60766,1
32808,16,0.32281,33384,-240,0.56969,1
33128,320,0.37570,33192,-192,0.53931,1
33416,288,0.42331,32631,-561,0.45056,1
33704,288,0.47091,32567,-64,0.44044,1
33480,-224,0.43388,33240,673,0.54691,1
33352,-128,0.41273,32071,-1169,0.36197,1
32727,-625,0.30942,32583,512,0.44297,1
