timestamp,ch1,ch2,ch3,gesture,label,emg1_notch,emg2_notch,emg3_notch,emg1_clean,emg2_clean,emg3_clean
1752251504,2320,41290,34440,0-OPEN,0,2242.879023,40802.69075,34092.04322,0.297480812,0.493316386,0.491653875
1752251504,4273,53196,55885,0-OPEN,0,4234.56555,52625.77374,55321.13589,0.374190095,0.584953947,0.667892856
1752251504,1216,44874,46635,0-OPEN,0,1220.144242,44276.19205,45910.41547,0.251244313,0.532674987,0.601380024
1752251504,2832,49916,53981,0-OPEN,0,2878.412967,49348.99926,53167.02043,0.299981861,0.523631602,0.607063639
1752251504,3360,42698,43738,0-OPEN,0,3444.279586,42217.39437,42914.66227,0.346056722,0.519442254,0.570402599
1752251504,1472,59406,61246,0-OPEN,0,1586.070802,59059.4827,60494.44278,0.226781387,0.582686295,0.636704473
1752251504,2608,39641,41066,0-OPEN,0,2740.806455,39463.61851,40460.48285,0.321327807,0.497210945,0.540204559
1752251504,2144,53261,55869,0-OPEN,0,2282.632292,53271.19005,55469.22793,0.237432721,0.505176826,0.556166456
1752251504,912,49051,51676,0-OPEN,0,1042.921672,49249.01976,51521.60732,0.260108235,0.587603565,0.632704775
1752251505,6161,61743,61182,0-OPEN,0,6271.459943,62111.18293,61288.91881,0.389147871,0.567172371,0.582424065
1752251505,1696,47147,49420,0-OPEN,0,1775.340946,47651.00403,49778.46946,0.306736245,0.57503729,0.606868453
1752251505,4321,60670,61166,0-OPEN,0,4361.524804,61261.73727,61741.3056,0.291894674,0.548070503,0.565657144
1752251505,1200,43738,45643,0-OPEN,0,1197.682391,44360.17553,46378.78953,0.298477514,0.550218592,0.570414298
1752251505,5089,56061,56445,0-OPEN,0,5043.955587,56652.55552,57268.66834,0.30916662,0.501711454,0.51012419
1752251505,928,36344,35112,0-OPEN,0,844.4920012,36845.99017,35941.66012,0.297198238,0.491973581,0.476793124
1752251505,7009,61727,61214,0-OPEN,0,6895.068266,62088.73959,61966.87348,0.380847183,0.552671933,0.546216281
1752251505,2144,41770,41930,0-OPEN,0,2010.728839,41954.5228,42531.13999,0.355271923,0.554472354,0.551234561
1752251505,4305,61711,61214,0-OPEN,0,4165.314247,61698.66997,61603.61117,0.261671617,0.554440736,0.540365181
1752251505,1056,37817,36088,0-OPEN,0,923.3498706,37607.32818,36227.03139,0.310344327,0.536392217,0.515456169
1752251505,6593,61791,61246,0-OPEN,0,6480.204644,61402.86098,61120.05367,0.361829112,0.558462873,0.53648872
1752251505,2016,38137,36472,0-OPEN,0,1934.066401,37607.06496,36092.98674,0.347930752,0.562378503,0.544470852
1752251505,3824,60782,61182,0-OPEN,0,3780.911414,60161.25065,60587.01298,0.252477935,0.553021299,0.533227362
1752251505,1280,32487,30935,0-OPEN,0,1279.892476,31835.66719,30182.52616,0.308633897,0.538863128,0.524120514
1752251505,5489,61631,61214,0-OPEN,0,5531.887525,61012.77743,60378.1798,0.337685154,0.564536238,0.532789357
1752251505,1408,35160,32695,0-OPEN,0,1489.79648,34636.05065,31858.53075,0.30202089,0.594813752,0.574979878
1752251505,5073,57438,60270,0-OPEN,0,5185.850779,57060.774,59515.93667,0.338782125,0.530533893,0.526234217
1752251505,1232,27654,22629,0-OPEN,0,1365.026658,27461.71325,22032.19481,0.27897961,0.559656923,0.516539024
1752251505,3392,40217,40553,0-OPEN,0,3532.312896,40229.41388,40172.16694,0.28927798,0.3794107,0.349592038
1752251506,2592,2464,2576,0-OPEN,0,2725.98782,2679.91236,2447.671128,0.319132814,0.362315256,0.362882182
1752251506,1856,53244,58782,0-OPEN,0,1970.652558,53642.19074,58918.06678,0.247476738,0.506609488,0.530776156
1752251506,1728,2544,2608,0-OPEN,0,1812.109073,3086.007112,2995.166841,0.263851779,0.391287426,0.39109406
1752251506,1952,42298,42858,0-OPEN,0,1997.298566,42931.17265,43458.14561,0.274508266,0.419311717,0.400003423
1752251506,1024,2480,2624,0-OPEN,0,1025.978287,3142.603172,3377.926246,0.216864662,0.413673321,0.413786096
1752251506,1920,39545,41130,0-OPEN,0,1878.350348,40172.45164,41963.65374,0.29284727,0.409963052,0.40468918
1752251506,4545,2480,2608,0-OPEN,0,4463.773937,3011.160397,3439.737946,0.35365776,0.431532203,0.431995829
1752251506,2256,42970,46235,0-OPEN,0,2143.224664,43353.29201,46983.76298,0.32134091,0.458348478,0.473309761
1752251506,2048,2416,2592,0-OPEN,0,1914.720796,2614.409739,3185.203972,0.239281222,0.44532604,0.448501222
1752251506,864,36296,37913,0-OPEN,0,723.1525994,36290.36971,38293.19569,0.269001132,0.413584132,0.414085281
1752251506,5313,2336,2624,0-OPEN,0,5178.314296,2126.87501,2754.431131,0.37694602,0.457684263,0.466320309
1752251506,992,42842,43754,0-OPEN,0,876.7048748,42449.93842,43622.54061,0.273935168,0.485620054,0.480630667
1752251506,1664,2528,2592,0-OPEN,0,1579.335849,1991.561447,2212.275568,0.225708589,0.472787212,0.485698874
1752251506,1600,39401,41242,0-OPEN,0,1554.13726,38772.68362,40651.75199,0.292992803,0.462261118,0.463309857
1752251506,3424,2496,2624,0-OPEN,0,3421.400002,1837.106048,1881.34132,0.309043163,0.485988359,0.506782717
1752251506,1504,37417,38745,0-OPEN,0,1544.962183,36791.69581,37922.70033,0.278393372,0.449091329,0.442229382
1752251506,2592,10834,2688,0-OPEN,0,2672.55717,10303.30745,1866.364071,0.282603776,0.573198458,0.525613778
1752251506,2000,50540,56973,0-OPEN,0,2112.318315,50156.26131,56232.60201,0.289059184,0.574146233,0.61476774
1752251506,3824,3120,2592,0-OPEN,0,3957.196494,2921.281035,2005.786301,0.341264195,0.507802418,0.534810152
1752251506,3040,39865,41450,0-OPEN,0,3181.210717,39870.66647,41075.18496,0.326634351,0.488493149,0.481322803
1752251507,3344,6209,2592,0-OPEN,0,3479.573837,6418.128544,2464.490684,0.320930632,0.529343903,0.530756039
1752251507,1920,40105,42666,0-OPEN,0,2036.757494,40496.80379,42797.42071,0.278423157,0.513424316,0.516841499
1752251507,2400,5137,2576,0-OPEN,0,2486.500343,5672.778128,2952.639107,0.273396783,0.497686879,0.508004699
1752251507,5041,40329,40377,0-OPEN,0,5088.777149,40955.95532,40961.13753,0.41785535,0.552576532,0.536686443
1752251507,1136,5105,2592,0-OPEN,0,1140.381592,5761.464556,3325.680146,0.205835745,0.45923065,0.466031024
1752251507,2432,29879,26710,0-OPEN,0,2392.406689,30500.20135,27520.4621,0.317702298,0.508361167,0.466978316
1752251507,6833,11058,2560,0-OPEN,0,6753.20768,11582.60898,3366.884046,0.43216911,0.462107491,0.407654772
1752251507,1440,39209,41962,0-OPEN,0,1327.824697,39585.72089,42686.09759,0.287153233,0.653239618,0.676581417
1752251507,4561,37689,30023,0-OPEN,0,4427.314611,37882.14755,30594.77518,0.320570786,0.647032827,0.596574942
1752251507,1600,25350,20196,0-OPEN,0,1457.713257,25342.23642,20561.24201,0.3018403,0.587877208,0.543869815
1752251507,4497,43146,40633,0-OPEN,0,4359.872147,42939.29617,40757.48983,0.309248756,0.641872892,0.631094785
1752251507,1680,25894,20020,0-OPEN,0,1561.311551,25509.71907,19893.29813,0.306084478,0.645635576,0.603020154
1752251510,6209,62255,61711,1-CLOSE,1,6087.456749,61967.15999,61634.07095,0.431534352,0.798743721,0.795758197
1752251510,3040,33896,33848,1-CLOSE,1,2945.98347,33444.42517,33544.96473,0.359716312,0.456612398,0.449298111
1752251510,4561,14099,14739,1-CLOSE,1,4503.888784,13528.27314,14240.79451,0.359521562,0.385768989,0.384220555
1752251510,1168,36168,36712,1-CLOSE,1,1153.430817,35533.10258,36067.41408,0.276316361,0.467056089,0.466054574
1752251510,1008,13811,13715,1-CLOSE,1,1037.259778,13173.33514,12987.16412,0.210324523,0.408191732,0.398932714
1752251510,1872,39625,39449,1-CLOSE,1,1941.984291,39046.49389,38709.20566,0.300347297,0.485564723,0.479260699
1752251511,3920,16115,17108,1-CLOSE,1,4023.717307,15652.16609,16428.84542,0.339729212,0.451000312,0.451430687
1752251511,2944,37177,36744,1-CLOSE,1,3071.27929,36875.26242,36192.12448,0.339240339,0.450212523,0.442037079
1752251511,4273,18724,19604,1-CLOSE,1,4411.416878,18613.24876,19233.52777,0.361273263,0.489873019,0.488993316
1752251511,3936,44090,44586,1-CLOSE,1,4072.085984,44181.89035,44433.52704,0.375676429,0.503160926,0.505887999
1752251511,3712,16788,17796,1-CLOSE,1,3832.526509,17074.60846,17876.86525,0.34341117,0.477330194,0.476803809
1752251511,2176,38185,39065,1-CLOSE,1,2269.187341,38639.14282,39371.37862,0.297153656,0.445317876,0.45138212
1752251511,1088,19524,20052,1-CLOSE,1,1144.610838,20101.93398,20553.77103,0.23595769,0.494920357,0.49035056
1752251511,896,40905,40073,1-CLOSE,1,910.2670498,41550.86651,40720.88335,0.2421583,0.473778939,0.464994171
1752251511,1376,18100,19780,1-CLOSE,1,1346.291895,18751.10294,20510.32174,0.250640916,0.461392479,0.467654747
1752251511,1312,36873,38361,1-CLOSE,1,1241.050292,37465.69961,39101.86873,0.262307828,0.448859734,0.461033189
1752251511,3040,20965,21157,1-CLOSE,1,2934.694677,21441.04392,21835.42101,0.322377809,0.45480152,0.448659602
1752251511,2656,47163,45291,1-CLOSE,1,2526.735401,47475.63478,45840.29595,0.323839257,0.560900101,0.543484542
1752251511,1424,20869,21061,1-CLOSE,1,1283.567687,20987.47666,21427.31655,0.253636884,0.412346916,0.407494172
1752251511,1984,38281,37577,1-CLOSE,1,1846.267194,38193.06936,37724.17856,0.29976174,0.501597298,0.492803629
1752251511,4897,47931,47963,1-CLOSE,1,4775.681352,47644.91875,47876.88299,0.40246339,0.613137326,0.613311311
1752251511,3344,37577,37177,1-CLOSE,1,3251.349532,37120.98192,36866.99129,0.36122006,0.515556525,0.508725901
1752251511,2208,49308,47451,1-CLOSE,1,2153.406914,48726.73245,46948.29843,0.290079982,0.581479217,0.565882766
1752251511,1088,37817,39369,1-CLOSE,1,1076.940145,37167.29546,38723.53634,0.266357018,0.53266425,0.543355586
1752251511,1328,52636,52044,1-CLOSE,1,1361.537127,51981.30284,51319.6239,0.256733996,0.57363201,0.571689575
1752251511,1168,42442,41482,1-CLOSE,1,1242.747644,41846.31814,40750.16933,0.268650177,0.58141892,0.569201031
1752251512,3056,52540,51308,1-CLOSE,1,3164.534252,52061.55999,50640.59364,0.336113126,0.543426097,0.536467045
1752251512,2000,37689,37673,1-CLOSE,1,2131.616519,37374.30466,37135.10346,0.301015529,0.535719355,0.531238818
1752251512,1200,52108,51484,1-CLOSE,1,1341.670276,51987.30446,51127.59035,0.263157662,0.519610663,0.518823324
1752251512,2368,37689,38617,1-CLOSE,1,2505.646751,37773.53748,38476.06002,0.312626225,0.525348555,0.529698378
1752251512,2448,49948,50028,1-CLOSE,1,2567.979269,50228.89293,50115.23921,0.321677712,0.488404088,0.494087033
1752251512,1232,38809,37993,1-CLOSE,1,1322.410682,39258.21776,38298.67529,0.260329441,0.519622233,0.508189364
1752251512,1216,52684,51772,1-CLOSE,1,1267.794873,53257.28634,52265.07389,0.272333381,0.507972778,0.505056501
1752251512,4225,37913,38473,1-CLOSE,1,4233.002874,38554.17291,39104.31494,0.385249973,0.492923864,0.494437125
1752251512,1232,55405,55021,1-CLOSE,1,1195.45645,56051.45113,55728.21362,0.273329161,0.531078084,0.533479824
1752251512,1296,45707,46619,1-CLOSE,1,1218.485936,46296.03965,47332.94444,0.259263139,0.545636915,0.552311105
1752251512,2320,52492,51436,1-CLOSE,1,2209.101528,52966.77475,52087.25197,0.31696855,0.50411634,0.499449158
1752251512,1424,39001,38761,1-CLOSE,1,1290.655611,39315.57543,39286.18497,0.26528555,0.469129102,0.464463504
1752251512,1840,50124,49164,1-CLOSE,1,1697.379894,50247.81421,49511.98826,0.29078359,0.481262615,0.476587152
1752251512,1440,40601,40713,1-CLOSE,1,1302.20373,40522.05712,40850.14777,0.268239704,0.472967694,0.472541895
1752251512,2336,51788,51436,1-CLOSE,1,2216.690978,51514.14153,51349.52263,0.303235457,0.492726171,0.49347359
1752251512,1488,40905,41082,1-CLOSE,1,1399.05324,40463.09138,40781.11596,0.274620332,0.470876437,0.471735071
1752251512,1824,49372,48411,1-CLOSE,1,1774.294137,48805.18614,47925.8105,0.269439777,0.463839087,0.458059615
1752251512,1248,45115,44874,1-CLOSE,1,1242.524413,44478.60465,44252.57608,0.2713665,0.510423013,0.508575524
1752251512,2736,54925,55549,1-CLOSE,1,2775.39387,54281.35033,54852.90425,0.292832373,0.504440038,0.514252928
1752251512,1504,40169,40073,1-CLOSE,1,1584.493309,39581.07807,39370.9596,0.292203605,0.471763612,0.470406694
1752251513,1168,48523,47467,1-CLOSE,1,1281.705739,48047.95881,46827.7117,0.207329879,0.434322122,0.42755392
1752251513,3104,42442,41674,1-CLOSE,1,3239.722968,42125.81189,41159.59079,0.372640304,0.501945478,0.494464498
1752251513,4897,59470,59006,1-CLOSE,1,5041.483049,59343.48877,58666.53444,0.346095315,0.522486622,0.52371279
1752251513,1504,40553,40649,1-CLOSE,1,1643.129811,40628.72531,40517.54124,0.316996986,0.494423229,0.494120581
1752251513,6225,61583,60798,1-CLOSE,1,6345.118346,61853.76985,60887.12589,0.383617624,0.533293327,0.532471073
1752251513,736,45691,46091,1-CLOSE,1,825.2659011,46130.74504,46391.77895,0.294323818,0.547858172,0.550890738
1752251513,4961,58670,57918,1-CLOSE,1,5010.484589,59236.14216,58400.75652,0.314980249,0.50407412,0.503340558
1752251513,1264,41194,40809,1-CLOSE,1,1268.613806,41831.30589,41425.94516,0.321471794,0.507790467,0.502617942
1752251513,5201,60430,58382,1-CLOSE,1,5160.055873,61076.09166,59072.04812,0.317555668,0.524940325,0.512337992
1752251513,2080,44986,44986,1-CLOSE,1,1997.311248,45577.68091,45681.06898,0.353433711,0.53587627,0.535416613
1752251513,3968,61198,60030,1-CLOSE,1,3851.48619,61677.40257,60661.75323,0.265772833,0.544619119,0.539608569
1752251513,1120,41674,40441,1-CLOSE,1,980.8809794,41994.0442,40947.31841,0.301727621,0.492135105,0.480581379
1752251513,10450,61743,61182,1-CLOSE,1,10301.92848,61872.00567,61513.06974,0.551000011,0.56863155,0.568154917
1752251513,3072,44842,44986,1-CLOSE,1,2929.803039,44766.99666,45109.4571,0.367492436,0.502203091,0.505344471
1752251516,1296,51868,50380,2-PINCH,2,1172.8744,51868.95855,50534.85586,0.240198011,0.508740722,0.501054324
1752251516,1840,39481,39241,2-PINCH,2,1733.672901,39245.36153,39155.69455,0.264640937,0.471618306,0.465672259
1752251516,1152,48571,47483,2-PINCH,2,1072.403305,48120.03351,47164.62191,0.236371537,0.473959252,0.470623964
1752251516,3520,44618,45739,2-PINCH,2,3474.452035,43994.02594,45217.5253,0.323542043,0.513573269,0.521044056
1752251516,2240,58078,56637,2-PINCH,2,2232.570021,57340.7817,55962.80782,0.278370897,0.555856213,0.552324062
1752251517,2240,48987,49500,2-PINCH,2,2271.067258,48208.00775,48738.9367,0.262761277,0.548558165,0.551080356
1752251517,1216,55325,54701,2-PINCH,2,1282.19282,54580.15446,53927.65116,0.221113036,0.526268717,0.531086929
1752251517,3856,40521,40761,2-PINCH,2,3950.637228,39882.92935,40051.0462,0.333756609,0.467509284,0.46597978
1752251517,1360,49724,48843,2-PINCH,2,1473.796055,49254.8879,48265.7112,0.204922689,0.470733804,0.473226475
1752251517,3056,48203,48235,2-PINCH,2,3177.908716,47948.97496,47846.9289,0.308789469,0.535283374,0.533437432
1752251517,7873,52940,51436,2-PINCH,2,7991.460236,52926.84624,51275.67974,0.45484205,0.495257748,0.493406751
1752251517,2512,41386,41274,2-PINCH,2,2616.036679,41616.14885,41357.72718,0.298349271,0.473718739,0.469622497
1752251517,6289,56125,54637,2-PINCH,2,6369.014504,56577.17935,54957.1988,0.358726461,0.519239379,0.51869863
1752251517,1216,42842,43002,2-PINCH,2,1264.630817,43473.41811,43528.14048,0.255533016,0.490729274,0.489854217
1752251517,4737,48843,46795,2-PINCH,2,4749.797319,49593.09873,47476.20095,0.267389996,0.447936486,0.441143919
1752251517,3984,41882,42010,2-PINCH,2,3959.941839,42678.18766,42779.8687,0.382975304,0.489117803,0.488199044
1752251517,8578,55997,54381,2-PINCH,2,8519.71741,56762.06357,55164.51893,0.411792965,0.50872847,0.507297518
1752251517,1488,43098,42938,2-PINCH,2,1401.348454,43757.64385,43658.88115,0.282208066,0.510367025,0.507300963
1752251517,6609,56445,54685,2-PINCH,2,6502.312835,56934.86855,55272.90467,0.314542316,0.510016989,0.507196703
1752251517,3264,41946,42714,2-PINCH,2,3147.405264,42217.88438,43111.36281,0.360773788,0.512444361,0.51779277
1752251517,5985,56925,56589,2-PINCH,2,5869.497868,56951.57802,56756.70319,0.279696338,0.514102455,0.524428471
1752251517,2784,40809,41354,2-PINCH,2,2680.365745,40586.57742,41275.18885,0.341833877,0.516302648,0.518894301
1752251517,5233,56909,55453,2-PINCH,2,5150.778845,56457.9651,55134.69049,0.243297035,0.516872418,0.516723063
1752251517,3824,39993,40121,2-PINCH,2,3770.674119,39355.97433,39593.46465,0.387322966,0.524188044,0.521654651
1752251517,8274,60734,57518,2-PINCH,2,8254.416327,59971.92578,56831.98232,0.372186081,0.557972492,0.542298048
1752251518,1344,39241,37449,2-PINCH,2,1359.836299,38427.32141,36670.80095,0.282130764,0.533640982,0.511358214
1752251518,10242,56941,54189,2-PINCH,2,10291.59481,56154.3858,53393.93055,0.4594461,0.532550468,0.520797724
1752251518,2000,35912,35848,2-PINCH,2,2078.611981,35228.67657,35113.13121,0.309047222,0.520935032,0.511715274
1752251518,3328,57245,55213,2-PINCH,2,3428.016905,56731.4859,54609.82034,0.17295894,0.546202139,0.541589063
1752251518,992,36360,36792,2-PINCH,2,1103.629288,36066.74155,36379.53863,0.262376245,0.544434856,0.537123417
1752251518,6769,55725,52668,2-PINCH,2,6881.510459,55681.371,52486.95843,0.333358085,0.543785481,0.529674765
1752251518,1328,35976,37033,2-PINCH,2,1430.788725,36187.34143,37101.72101,0.269983376,0.562411747,0.557918823
1752251518,4545,49820,48187,2-PINCH,2,4628.433652,50266.87276,48499.56023,0.257075471,0.50112467,0.499168929
1752251518,1408,33224,34360,2-PINCH,2,1464.307806,33863.89854,34886.63055,0.264067672,0.560377872,0.553333864
1752251518,2608,51276,49788,2-PINCH,2,2632.002656,52047.58919,50478.08309,0.196616081,0.52507546,0.524314898
1752251518,3520,33080,34408,2-PINCH,2,3509.639264,33909.05646,35195.00167,0.343240087,0.582243193,0.57451773
1752251518,7409,54941,51452,2-PINCH,2,7365.696167,55747.60249,52259.87807,0.425286164,0.569360393,0.549803038
1752251518,1360,7729,11186,2-PINCH,2,1288.356147,8434.532337,11935.90408,0.240042438,0.37281145,0.378188704
1752251518,3664,36520,36664,2-PINCH,2,3571.08194,37054.19938,37281.50787,0.289529912,0.413604716,0.423160762
1752251518,4225,9362,13139,2-PINCH,2,4119.777989,9670.684623,13562.1843,0.352186023,0.40552862,0.41255783
1752251518,976,37305,37353,2-PINCH,2,868.5128604,37356.07859,37539.05288,0.197212302,0.434133765,0.44153298
1752251518,2608,15699,18532,2-PINCH,2,2508.276196,15485.92221,18461.64857,0.275245482,0.476579779,0.474676544
1752251518,2432,35672,36280,2-PINCH,2,2349.238942,35214.4824,35959.44641,0.278887185,0.433576128,0.444517632
1752251518,1728,12323,16035,2-PINCH,2,1669.747771,11664.94356,15495.16563,0.232183466,0.454706773,0.459238436
1752251518,2288,36696,36392,2-PINCH,2,2259.421976,35901.35685,35685.57917,0.289158961,0.456961307,0.458439269
1752251519,1728,11586,15619,2-PINCH,2,1731.45245,10732.63787,14815.3791,0.22908029,0.45304662,0.459562609
1752251519,2912,39737,39369,2-PINCH,2,2946.863928,38909.13552,38547.52825,0.328940527,0.497063268,0.497498678
1752251519,4321,15715,19604,2-PINCH,2,4383.840276,14995.03051,18846.28426,0.338751254,0.492694105,0.498157905
1752251519,1152,37721,37993,2-PINCH,2,1236.838077,37181.17494,37374.68889,0.263985117,0.488410882,0.493460778
1752251519,3264,18468,21077,2-PINCH,2,3362.78152,18163.145,20660.17341,0.29467367,0.517262124,0.511466992
1752251519,1312,43898,42858,2-PINCH,2,1415.4105,43860.18645,42685.11778,0.278167674,0.55140453,0.544301371
1752251519,5153,24021,26742,2-PINCH,2,5251.421701,24256.2676,26831.70287,0.377592834,0.564455513,0.561658681
1752251519,1600,35960,35896,2-PINCH,2,1684.406333,36447.15029,36240.79445,0.295708765,0.483781357,0.48285696
1752251519,1872,19956,22373,2-PINCH,2,1934.636998,20648.22623,22939.5899,0.240746775,0.520007685,0.515536375
1752251519,3216,37433,37225,2-PINCH,2,3251.131131,38262.63585,37957.7251,0.368543358,0.501595007,0.497739101
1752251519,3232,21269,23557,2-PINCH,2,3236.555679,22154.27429,24383.45004,0.301844873,0.51871676,0.516162954
1752251519,864,37353,37577,2-PINCH,2,837.7327923,38206.04458,38415.13536,0.271355233,0.507239688,0.505102072
1752251519,2608,23061,25286,2-PINCH,2,2553.434989,23796.57319,26052.30019,0.278261817,0.514531188,0.515415388
1752251519,960,38313,38329,2-PINCH,2,882.2595158,38857.02035,38946.78589,0.277588045,0.525882855,0.519481417
1752251519,3920,20757,22901,2-PINCH,2,3826.377265,21053.88113,23307.98205,0.33769234,0.465732047,0.469613073
1752251522,1104,62239,60350,3-POINT,3,1064.718225,62493.07154,60703.78873,0.261470102,0.704309428,0.696661905
1752251522,2048,53036,51436,3-POINT,3,1993.027424,52918.86527,51465.3377,0.291169819,0.710340703,0.674482261
1752251522,1104,39289,37753,3-POINT,3,1038.56148,38811.83207,37454.97221,0.272489599,0.518832551,0.503941666
1752251523,1360,53805,52380,3-POINT,3,1290.234399,53013.75967,51783.27403,0.259839712,0.654222067,0.630893756
1752251523,1088,41162,40089,3-POINT,3,1020.385599,40133.69551,39251.75491,0.277698448,0.554607082,0.539039409
1752251523,1264,55661,53244,3-POINT,3,1204.771627,54496.23042,52248.25845,0.256397263,0.615465623,0.592634295
1752251523,1392,42602,41706,3-POINT,3,1346.585729,41415.11251,40649.58177,0.291282796,0.576064406,0.559106055
1752251523,1408,54141,52380,3-POINT,3,1380.533152,53048.78402,51366.87557,0.265018783,0.558989884,0.548977099
1752251523,3056,43274,42458,3-POINT,3,3048.982831,42384.1869,41588.04569,0.358204924,0.577523543,0.560658391
1752251523,3888,56125,53357,3-POINT,3,3902.141323,55525.74516,52716.21357,0.373956038,0.549513101,0.534784426
1752251523,1760,43338,42682,3-POINT,3,1794.062575,43089.14309,42333.99504,0.295081288,0.561209629,0.547497107
1752251523,1440,55197,52364,3-POINT,3,1490.772012,55324.01848,52343.64474,0.272468919,0.527341593,0.513612185
1752251523,2000,42762,43018,3-POINT,3,2062.639234,43253.39098,43327.93237,0.29443112,0.530347406,0.52847401
1752251523,2000,52172,50604,3-POINT,3,2068.577281,52980.25641,51214.28547,0.298093727,0.496228818,0.493654214
1752251523,1776,44570,43562,3-POINT,3,1844.046415,45616.26307,44413.02479,0.271888983,0.517561249,0.508641733
1752251523,1296,53965,52092,3-POINT,3,1357.080897,55146.87682,53100.37685,0.267800383,0.514307616,0.508298224
1752251523,1056,44938,44266,3-POINT,3,1104.308426,46139.5338,45332.73433,0.227303939,0.493489904,0.492002684
1752251523,2720,53228,53309,3-POINT,3,2750.966004,54330.96511,54329.19032,0.32517002,0.509807836,0.520899255
1752251523,3728,44618,44058,3-POINT,3,3738.814935,45513.50292,44931.11735,0.328021265,0.469807597,0.472577335
1752251523,1296,49051,48363,3-POINT,3,1285.791285,49650.1235,49002.61386,0.256873334,0.470430617,0.473393372
1752251523,3472,47579,46683,3-POINT,3,3441.817954,47821.71065,47025.40149,0.306239175,0.486097999,0.488083169
1752251523,1936,49660,48251,3-POINT,3,1888.766733,49521.28525,48261.67143,0.271434659,0.468590915,0.465770198
1752251523,3936,43866,43002,3-POINT,3,3876.246594,43358.25369,42678.91512,0.318868464,0.453234257,0.455030042
1752251524,3248,51564,49900,3-POINT,3,3181.450934,50735.96196,49273.96651,0.309223759,0.472022738,0.468950584
1752251524,1344,47531,46587,3-POINT,3,1276.94182,46463.28672,45718.92644,0.205573126,0.498436225,0.499016876
1752251524,1504,51084,50380,3-POINT,3,1442.60513,49881.19941,49354.94451,0.211877042,0.448926051,0.457055265
1752251524,992,47371,46315,3-POINT,3,941.8229577,46151.33291,45233.73924,0.192008641,0.516801775,0.514338627
1752251524,7041,60750,59230,3-POINT,3,7006.678462,59633.99138,58199.36191,0.421632587,0.516980731,0.52174302
1752251524,9490,44362,44042,3-POINT,3,9475.070791,43460.50484,43164.26674,0.559035425,0.512731932,0.514375607
1752251524,4737,61759,58734,3-POINT,3,4743.320942,61161.96871,58096.51387,0.295971862,0.509635177,0.502535178
1752251524,3152,33192,33768,3-POINT,3,3179.122688,32959.29233,33434.26442,0.294943911,0.432898076,0.439000883
1752251524,5969,54093,50972,3-POINT,3,6014.293921,54248.15531,50975.16305,0.322914171,0.431153851,0.422750731
1752251524,3744,33208,33656,3-POINT,3,3803.097351,33736.16783,33995.84487,0.325567742,0.449410313,0.453245956
1752251524,4977,61727,60510,3-POINT,3,5044.155346,62576.7786,61153.4314,0.259899737,0.502676984,0.513250352
1752251524,2256,34376,34392,3-POINT,3,2324.591176,35464.46472,35276.28674,0.264654915,0.468999139,0.468765743
1752251524,10002,55117,53725,3-POINT,3,10065.34535,56337.39593,54763.4366,0.460580355,0.455500638,0.462103847
1752251524,1984,33640,33176,3-POINT,3,2036.041846,34872.14865,34266.34546,0.251825523,0.464687145,0.460227985
1752251524,3104,60270,58446,3-POINT,3,3139.556098,61392.4431,59480.84829,0.160563062,0.523946767,0.525639068
1752251524,3216,37817,37337,3-POINT,3,3231.320092,38719.09331,38214.49578,0.300233176,0.501933466,0.498769398
1752251524,9442,52876,49932,3-POINT,3,9435.52182,53468.46362,50565.48968,0.431201874,0.482048698,0.469823167
1752251524,2560,35592,36392,3-POINT,3,2532.456397,35815.56828,36718.43898,0.267681197,0.482610771,0.491509537
1752251524,3968,51756,50108,3-POINT,3,3922.013771,51587.51295,50094.45664,0.201780948,0.49575122,0.493328855
1752251524,5713,40825,39353,3-POINT,3,5652.939044,40279.99723,39000.07848,0.399964874,0.53770867,0.52655853
1752251525,6497,53389,51724,3-POINT,3,6428.782715,52520.37003,51065.89134,0.314623927,0.52849677,0.524699054
1752251525,4241,36696,36248,3-POINT,3,4171.385941,35588.5972,35349.00733,0.339332857,0.517010364,0.513916175
1752251525,4721,50828,49644,3-POINT,3,4656.802877,49590.24946,48592.16117,0.243757886,0.515070236,0.514505771
1752251525,2880,43658,43258,3-POINT,3,2827.424535,42411.59743,42156.75278,0.287633669,0.606437963,0.603480253
1752251525,6881,56349,54317,3-POINT,3,6845.150908,55217.1814,53275.20647,0.341276698,0.568796502,0.561357159
1752251525,2640,36728,35656,3-POINT,3,2624.41767,35822.99043,34776.79722,0.286006693,0.574480077,0.561706484
1752251525,7553,53613,52236,3-POINT,3,7559.270464,53024.67338,51606.41661,0.377817257,0.545885945,0.54446555
1752251525,2816,38281,37625,3-POINT,3,2843.60531,38068.19803,37307.61442,0.301726959,0.617798732,0.606643704
1752251525,6145,55133,53148,3-POINT,3,6191.302464,55317.77269,53174.81053,0.329958377,0.567340714,0.560885127
1752251525,3840,36312,36840,3-POINT,3,3900.517031,36877.2337,37209.12942,0.351151917,0.618932882,0.616327953
1752251525,6737,53533,51244,3-POINT,3,6805.892379,54423.90998,51919.72882,0.372278957,0.572756509,0.562752893
1752251525,2688,5953,7297,3-POINT,3,2758.574893,7081.655641,8212.430155,0.304691539,0.344959283,0.343388796
1752251525,3392,41258,40073,3-POINT,3,3457.25247,42511.70067,41136.41578,0.250663726,0.496986582,0.493253904
1752251525,2016,12291,13955,3-POINT,3,2069.320559,13544.51834,15060.03481,0.276344861,0.386285573,0.389453756
1752251525,1104,36648,36232,3-POINT,3,1139.871611,37776.28216,37268.46023,0.175929579,0.505498127,0.504844411
1752251525,2048,14771,15891,3-POINT,3,2062.58597,15661.51775,16755.70854,0.277178118,0.376974063,0.377738088
1752251525,5601,35400,34904,3-POINT,3,5592.737001,35964.0499,35511.12229,0.389835412,0.552299234,0.546231039
1752251528,5009,62319,61743,4-FOUR,4,4970.22464,62715.44002,62198.18646,0.391185772,0.716645332,0.703010653
1752251529,3504,34760,35832,4-FOUR,4,3442.930196,34790.6855,35991.12396,0.327762938,0.48739572,0.502129334
1752251529,1456,56285,52540,4-FOUR,4,1378.769115,55952.54509,52392.34206,0.254721207,0.613667738,0.580143219
1752251529,1280,39257,38313,4-FOUR,4,1194.230531,38598.79855,37877.15136,0.226622731,0.559964794,0.548023961
1752251529,1824,54525,52188,4-FOUR,4,1738.159627,53609.21163,51509.88226,0.285781383,0.559060349,0.54733526
1752251529,2448,40345,39961,4-FOUR,4,2370.659567,39263.42678,39109.03323,0.270820326,0.585616302,0.572860427
1752251529,1376,59838,56093,4-FOUR,4,1314.956623,58697.0927,55151.32949,0.277406783,0.581638373,0.564212631
1752251529,5233,41434,40986,4-FOUR,4,5194.536828,40344.39272,40046.1782,0.389004251,0.59497521,0.578684981
1752251529,1456,58302,55053,4-FOUR,4,1444.256191,57367.60693,54204.96008,0.282998466,0.554083757,0.544502976
1752251529,2448,39913,39465,4-FOUR,4,2464.376664,39221.0518,38788.39434,0.277330883,0.567496829,0.550617523
1752251529,1504,59086,55677,4-FOUR,4,1546.997696,58698.99246,55233.78629,0.277195842,0.556444909,0.546581454
1752251529,1616,41642,41322,4-FOUR,4,1681.408752,41592.18495,41150.89395,0.256459808,0.561954841,0.548339617
1752251529,1360,54893,51980,4-FOUR,4,1441.305792,55179.6465,52093.02827,0.254667974,0.517560891,0.51091238
1752251529,1760,38953,38985,4-FOUR,4,1849.05937,39542.89359,39366.67156,0.281851798,0.514426408,0.506462336
1752251529,2416,55069,52428,4-FOUR,4,2503.887291,55900.31485,53037.36782,0.27877112,0.518087895,0.512519985
1752251529,1344,41818,41258,4-FOUR,4,1421.885107,42806.89619,42033.14232,0.283285945,0.520632246,0.510843643
1752251529,1856,54845,52716,4-FOUR,4,1915.989702,55894.05171,53580.29312,0.234649205,0.511590242,0.509047632
1752251529,1200,41882,41898,4-FOUR,4,1235.943575,42889.70629,42767.63892,0.291226026,0.507545148,0.505953994
1752251529,5969,51660,49324,4-FOUR,4,5977.246026,52530.51211,50116.01386,0.395168587,0.473717736,0.46714587
1752251529,2000,40393,40217,4-FOUR,4,1979.792293,41045.17754,40857.09036,0.330759457,0.487412968,0.485991371
1752251529,7857,54029,51660,4-FOUR,4,7810.485559,54404.09855,52089.64662,0.468786238,0.482898341,0.475246011
1752251530,1888,40970,40553,4-FOUR,4,1819.977534,41036.97301,40734.83339,0.321928207,0.492209303,0.490198896
1752251530,3040,61134,59134,4-FOUR,4,2957.242843,60892.10927,59055.1374,0.264075637,0.533949707,0.530127156
1752251530,1552,40585,39817,4-FOUR,4,1462.576433,40063.29202,39489.79445,0.296262119,0.49225327,0.4878241
1752251530,2528,57710,56365,4-FOUR,4,2440.605552,56963.65155,55825.09801,0.247462064,0.490649723,0.491611829
1752251530,1712,41546,41402,4-FOUR,4,1635.126464,40650.55775,40704.56562,0.288697276,0.506214431,0.508147978
1752251530,1280,57678,56621,4-FOUR,4,1221.091091,56721.84287,55835.17719,0.199756088,0.482146686,0.485251776
1752251530,3408,32615,32519,4-FOUR,4,3372.773571,31690.35517,31720.77919,0.348147709,0.429954539,0.430691671
1752251530,5841,58574,57678,4-FOUR,4,5833.052969,57768.08425,56942.90087,0.396301081,0.487421734,0.491710083
1752251530,2576,39561,40137,4-FOUR,4,2596.372773,38948.24945,39533.39561,0.304686758,0.497233089,0.505242413
1752251530,1664,58158,57630,4-FOUR,4,1710.809481,57793.19158,57212.7518,0.214762599,0.48631501,0.493428048
1752251530,1232,41930,41194,4-FOUR,4,1300.598802,41843.27926,40999.32701,0.245709698,0.521885435,0.517784889
1752251530,4593,59470,57902,4-FOUR,4,4676.632085,59664.52556,57944.39876,0.330566137,0.50576024,0.50283002
1752251530,4048,40777,41562,4-FOUR,4,4138.579367,41229.0599,41833.25454,0.370109458,0.514194661,0.523642073
1752251530,7121,58590,57117,4-FOUR,4,7209.880499,59251.72733,57587.35417,0.424868573,0.508774821,0.505816214
1752251530,1264,41722,40841,4-FOUR,4,1342.645646,42526.46486,41462.35082,0.260325297,0.526168687,0.519974822
1752251530,3760,58430,57358,4-FOUR,4,3820.642085,59297.98463,58068.83109,0.265591687,0.520464694,0.520372957
1752251530,1248,41402,41162,4-FOUR,4,1284.479491,42249.7561,41893.49318,0.271327609,0.527858636,0.527221743
1752251530,3504,58478,57422,4-FOUR,4,3512.476723,59225.32433,58104.68478,0.238354573,0.534884761,0.534138679
1752251530,1776,41834,41386,4-FOUR,4,1755.369409,42411.82503,41956.33494,0.306278111,0.538028052,0.535132836
1752251530,3696,60302,59422,4-FOUR,4,3648.040364,60658.79605,59828.31735,0.232099706,0.565197641,0.565734779
1752251531,2224,40633,40345,4-FOUR,4,2153.219938,40739.27649,40552.11582,0.336344713,0.535135211,0.532966596
1752251531,7345,58782,57806,4-FOUR,4,7258.310616,58632.56532,57798.10604,0.377531773,0.563807662,0.562689453
1752251531,1840,43178,43274,4-FOUR,4,1746.018005,42792.06168,43055.88116,0.327072474,0.568152467,0.569317203
1752251531,6369,60046,58606,4-FOUR,4,6277.065547,59464.91462,58202.23993,0.332371969,0.585725593,0.580273373
1752251531,2224,41034,40986,4-FOUR,4,2143.270702,40316.75052,40438.11785,0.344577797,0.56000198,0.558590766
1752251531,6113,40601,39721,4-FOUR,4,6051.559731,39817.65483,39082.65554,0.326173541,0.416671987,0.412785484
1752251531,960,25574,25510,4-FOUR,4,924.0055016,24798.51043,24841.38236,0.284731423,0.431357599,0.426038618
1752251531,8081,46187,45787,4-FOUR,4,8074.125897,45490.92257,45149.85122,0.423347345,0.473435981,0.475083395
1752251531,1312,24517,24053,4-FOUR,4,1335.108997,23963.32076,23505.32516,0.287124812,0.43313945,0.423038341
1752251531,2656,42314,40970,4-FOUR,4,2706.837252,41951.22063,40560.52422,0.212479364,0.443132557,0.435323812
1752251531,1088,25670,26358,4-FOUR,4,1161.397092,25528.0135,26121.98544,0.260183005,0.452213957,0.452347789
1752251531,2560,40361,39657,4-FOUR,4,2648.545225,40448.77039,39613.36586,0.23346615,0.431207939,0.428834839
1752251531,2976,23637,23909,4-FOUR,4,3070.843209,23942.0815,24058.75177,0.321166787,0.436991381,0.432547346
1752251531,2880,36376,35400,4-FOUR,4,2971.747261,36866.07558,35726.37012,0.273979938,0.403805683,0.397729363
1752251531,3536,29367,29959,4-FOUR,4,3615.606498,29993.49431,30429.52684,0.325824942,0.484893542,0.484555309
1752251531,960,40073,39401,4-FOUR,4,1019.599284,40776.09878,39970.97869,0.218515979,0.451166887,0.447825066
1752251531,1008,19716,20468,4-FOUR,4,1041.595749,20429.92906,21084.29509,0.20073205,0.383822069,0.383672895
1752251531,3040,34712,34216,4-FOUR,4,3044.177897,35370.9097,34821.72902,0.331726802,0.421568371,0.417859442
1752251531,2784,18996,19028,4-FOUR,4,2758.391897,19540.25395,19567.97893,0.261999754,0.355408258,0.349190957
1752251535,1840,57390,56781,5-FIVE,5,1780.334257,57823.07692,57221.57557,0.215396605,0.536177986,0.538769744
1752251535,1920,19748,20629,5-FIVE,5,1838.7074,20242.81219,21154.14528,0.300238071,0.392188445,0.395342783
1752251535,3120,36520,37257,5-FIVE,5,3025.288414,37033.549,37820.16484,0.29327503,0.363387763,0.372754461
1752251535,2256,23653,24101,5-FIVE,5,2157.570274,24139.63525,24651.17157,0.302494664,0.419908401,0.420848031
1752251535,960,37049,37977,5-FIVE,5,867.9610208,37465.01706,38463.84312,0.21894692,0.392174494,0.401876804
1752251535,1072,24181,25478,5-FIVE,5,995.7921816,24488.4366,25856.37698,0.246999974,0.408184806,0.417923127
1752251535,2512,36889,36680,5-FIVE,5,2459.531783,37059.05887,36914.08243,0.294424502,0.419640718,0.417718265
1752251535,1184,25366,26406,5-FIVE,5,1160.866175,25381.75578,26472.64132,0.254976409,0.395754494,0.403823974
1752251535,1520,37481,37785,5-FIVE,5,1528.819983,37339.10207,37676.0874,0.252612661,0.455773736,0.458176166
1752251535,1264,24982,25894,5-FIVE,5,1304.12609,24693.13413,25617.36384,0.26834104,0.36558832,0.372679147
1752251535,2016,29303,30679,5-FIVE,5,2083.600392,28890.9167,30257.70012,0.267600259,0.410063064,0.420710381
1752251535,2096,54173,51916,5-FIVE,5,2184.444681,53673.44606,51387.19185,0.316927611,0.60492291,0.588189415
1752251535,2624,39241,39241,5-FIVE,5,2724.513354,38699.16925,38653.13098,0.284631385,0.523742656,0.523346362
1752251535,1632,50684,50588,5-FIVE,5,1734.494912,50149.58106,49995.64699,0.308722179,0.550055955,0.553181208
1752251535,1952,41098,38809,5-FIVE,5,2046.053372,40620.42404,38267.5768,0.248763704,0.55585781,0.534341075
1752251535,1904,49740,49740,5-FIVE,5,1979.930295,49363.95923,49300.60369,0.326017769,0.523587217,0.528217356
1752251535,9298,40073,39161,5-FIVE,5,9348.080223,39834.19991,38865.62224,0.559863743,0.55291049,0.543525503
1752251535,1488,52796,48971,5-FIVE,5,1507.223199,52717.88583,48848.52309,0.305553231,0.539199354,0.510075726
1752251535,2464,39193,39865,5-FIVE,5,2450.190331,39284.46141,39928.38546,0.27255087,0.543072609,0.547462516
1752251536,1344,54605,54125,5-FIVE,5,1298.061729,54859.34593,54370.08838,0.288428444,0.548463484,0.55231767
1752251536,1888,41434,40489,5-FIVE,5,1814.044469,41829.4771,40894.71521,0.256772367,0.554969807,0.543759609
1752251536,1680,50748,49436,5-FIVE,5,1584.994507,51249.45656,49965.85491,0.286141696,0.509953528,0.507121961
1752251536,2416,36120,37033,5-FIVE,5,2309.14343,36681.76744,37638.2364,0.289462698,0.493273128,0.497320684
1752251536,3376,50892,49003,5-FIVE,5,3267.870521,51462.1335,49627.16866,0.339927467,0.510423958,0.503938368
1752251536,3040,42074,41034,5-FIVE,5,2941.511786,42599.36854,41618.41106,0.324265966,0.531209616,0.517389437
1752251536,5409,46811,45643,5-FIVE,5,5330.313003,47242.10356,46132.14568,0.40914605,0.473859229,0.474646663
1752251536,1536,41338,41386,5-FIVE,5,1485.417342,41633.43764,41732.71586,0.264578261,0.506959632,0.502737357
1752251536,1408,58286,56333,5-FIVE,5,1390.931859,58416.86638,56503.39174,0.223056502,0.579361858,0.575682835
1752251536,1872,43274,44330,5-FIVE,5,1890.440137,43226.78362,44306.82432,0.280241204,0.507412273,0.513174567
1752251536,4401,48571,47435,5-FIVE,5,4453.490945,48348.39204,47218.86886,0.335793261,0.491274316,0.49334551
1752251536,1184,42218,42970,5-FIVE,5,1265.713461,41838.73816,42579.36491,0.251786983,0.482761992,0.486463852
1752251536,1936,50076,47995,5-FIVE,5,2039.029001,49573.64275,47464.87198,0.213739206,0.503423181,0.496194521
1752251536,1504,41306,40873,5-FIVE,5,1618.150682,40725.99831,40251.82183,0.269046149,0.463416393,0.457443915
1752251536,2016,49003,47883,5-FIVE,5,2129.868789,48398.5469,47228.22882,0.195913825,0.488895524,0.489093068
1752251536,1104,43898,44362,5-FIVE,5,1206.091396,43325.27608,43734.97001,0.260212593,0.481546562,0.486073717
1752251536,3440,42554,41466,5-FIVE,5,3519.921639,42066.82509,40926.02246,0.231011246,0.421416097,0.419335227
1752251536,2544,53581,52652,5-FIVE,5,2593.568321,53225.98459,52250.89775,0.333671696,0.570533331,0.56530928
1752251536,3920,48811,47931,5-FIVE,5,3934.049816,48623.44152,47708.49458,0.224240264,0.465857314,0.465856244
1752251536,2016,38505,38713,5-FIVE,5,1992.866246,38504.69918,38692.17334,0.323587247,0.439805684,0.443050353
1752251537,8466,57790,57902,5-FIVE,5,8407.820383,57979.25827,58087.00616,0.394090822,0.532782909,0.543402983
1752251537,2448,42234,41338,5-FIVE,5,2360.544705,42597.68766,41713.90607,0.350128236,0.484224211,0.477584862
1752251537,9010,60894,58862,5-FIVE,5,8901.990404,61400.54207,59395.68819,0.401403778,0.546252601,0.538176508
1752251537,1712,43178,42730,5-FIVE,5,1594.208147,43781.99321,43373.01202,0.319084771,0.504776736,0.501178242
1752251537,15523,55757,54685,5-FIVE,5,15407.33945,56403.01716,55377.76416,0.673730763,0.487224929,0.488511782
1752251537,880,45147,45483,5-FIVE,5,778.3207704,45774.67598,46160.36347,0.275942316,0.533767537,0.535830011
1752251537,3664,60942,59134,5-FIVE,5,3586.374452,61491.93612,59731.57561,0.171797444,0.526807651,0.523959788
1752251537,1184,41738,42074,5-FIVE,5,1137.757428,42157.22466,42534.10531,0.276532587,0.510961873,0.510190293
1752251537,1616,60094,57774,5-FIVE,5,1605.305316,60340.89863,58051.05872,0.092986843,0.517535952,0.511401977
1752251537,5697,43466,43050,5-FIVE,5,5722.597288,43514.58156,43115.17129,0.456821101,0.530700897,0.521324019
1752251537,6529,61535,57566,5-FIVE,5,6588.360245,61377.67958,57410.19855,0.311117339,0.536009837,0.515893274
1752251537,2064,41914,41930,5-FIVE,5,2151.347327,41562.52751,41564.9918,0.293708201,0.515427965,0.508499574
1752251537,5601,52540,51548,5-FIVE,5,5707.712899,52024.38241,51005.4337,0.277923365,0.466634372,0.472749804
1752251537,1376,51548,51820,5-FIVE,5,1491.542062,50914.30443,51149.01364,0.260705999,0.59641787,0.593236083
1752251537,8017,59406,56509,5-FIVE,5,8130.05072,58712.71534,55772.10615,0.385841774,0.548489363,0.537465006
1752251537,4097,42010,42010,5-FIVE,5,4196.656181,41322.13895,41276.74329,0.375212504,0.497491147,0.490553827
1752251537,6881,57133,56221,5-FIVE,5,6957.728528,56515.7706,55561.26646,0.343786892,0.552685461,0.558079868
1752251537,928,42970,43306,5-FIVE,5,974.3867815,42482.92541,42783.67312,0.237061034,0.49008351,0.48782997
1752251537,4241,57630,56093,5-FIVE,5,4252.424219,57321.26192,55759.7867,0.242165986,0.585145458,0.582461647
1752251537,1344,42970,44058,5-FIVE,5,1319.192075,42871.65188,43948.30326,0.247423131,0.47245854,0.479305902
1752251538,8274,61759,61198,5-FIVE,5,8215.36349,61883.75307,61325.52358,0.431011405,0.650007882,0.654202507
1752251541,3568,62287,61695,6-PEACE,6,3497.244259,62185.586,61628.66873,0.299349804,0.673698872,0.675564369
1752251541,1152,38441,39017,6-PEACE,6,1051.90434,38611.54746,39228.80019,0.257775448,0.486083248,0.489989611
1752251541,6609,44218,41786,6-PEACE,6,6489.503183,44646.97593,42258.08105,0.413513027,0.47967521,0.464589462
1752251541,2048,41098,40761,6-PEACE,6,1921.144671,41746.33933,41449.68637,0.306440331,0.545619205,0.538392425
1752251541,6865,52460,51100,6-PEACE,6,6743.644985,53267.36028,51940.61489,0.417791199,0.529887981,0.529214424
1752251541,2544,36440,36520,6-PEACE,6,2440.508802,37330.15559,37432.75745,0.329035955,0.533089814,0.526419045
1752251541,2848,58510,56541,6-PEACE,6,2772.86732,59397.96075,57438.45552,0.247701389,0.568200702,0.564955727
1752251541,1968,33528,34632,6-PEACE,6,1928.760521,34328.15959,35427.47916,0.299384364,0.528635036,0.529448467
1752251541,1792,52556,50796,6-PEACE,6,1792.555187,53190.04878,51411.65179,0.208686066,0.50687304,0.505293798
1752251541,3648,33368,36024,6-PEACE,6,3688.292552,33772.65608,36398.49743,0.363022951,0.540866874,0.555546807
1752251541,1792,52236,50268,6-PEACE,6,1868.048696,52369.4705,50362.78374,0.216287362,0.506215971,0.502423066
1752251541,1264,28871,29111,6-PEACE,6,1368.181191,28717.1623,28914.00707,0.253505236,0.506362014,0.497947285
1752251541,3344,58670,57822,6-PEACE,6,3465.853169,58240.46267,57349.33751,0.289638227,0.574568161,0.581453373
1752251541,1024,30007,30551,6-PEACE,6,1151.335075,29340.4599,29845.91006,0.237034671,0.51821476,0.513257114
1752251541,3424,47531,45403,6-PEACE,6,3544.074608,46689.30454,44531.38011,0.299304582,0.487585893,0.479386112
1752251541,1040,29927,30663,6-PEACE,6,1140.799643,28989.39905,29707.22874,0.233305945,0.516882614,0.513937085
1752251541,4353,47883,46987,6-PEACE,6,4424.461634,46939.01933,46038.5539,0.344598444,0.506830379,0.509107294
1752251542,1440,31303,31127,6-PEACE,6,1475.025722,30443.94796,30277.72238,0.247549406,0.529226852,0.517877376
1752251542,2752,45867,44938,6-PEACE,6,2747.091773,45177.08163,44271.1185,0.28173892,0.503595428,0.504408214
1752251542,7329,27350,28310,6-PEACE,6,7284.758982,26897.92614,27891.88941,0.4974542,0.495030021,0.492905804
1752251542,4385,40489,38265,6-PEACE,6,4306.144614,40321.06133,38138.45807,0.356362246,0.467417882,0.45456135
1752251542,2336,29575,30407,6-PEACE,6,2230.568254,29710.51059,30587.01435,0.285275441,0.519319602,0.515631445
1752251542,5553,44986,43450,6-PEACE,6,5431.519546,45415.39807,43922.35313,0.410366099,0.518632512,0.512227848
1752251542,3984,24485,25622,6-PEACE,6,3858.620529,25170.21986,26344.13765,0.358413367,0.478342273,0.475893348
1752251542,3328,42826,41290,6-PEACE,6,3211.186928,43703.62327,42194.63018,0.318696648,0.507395921,0.499479096
1752251542,4561,24053,24806,6-PEACE,6,4464.267405,25040.22651,25807.4492,0.387784868,0.479615123,0.473222746
1752251542,3168,40217,38825,6-PEACE,6,3100.833599,41219.42747,39827.30026,0.314378254,0.491163158,0.482548853
1752251542,2320,22421,23221,6-PEACE,6,2288.850724,23341.60309,24127.04983,0.297952203,0.468367293,0.462243558
1752251542,1888,40057,39641,6-PEACE,6,1895.634634,40805.57696,40362.05,0.262500989,0.496938309,0.495459919
1752251542,1744,25302,26486,6-PEACE,6,1789.303931,25804.12483,26950.4695,0.278515306,0.495694168,0.494131016
1752251542,2352,36728,37129,6-PEACE,6,2430.169972,36932.32552,37289.48279,0.286408855,0.473646461,0.477133662
1752251542,2016,26262,27558,6-PEACE,6,2119.073108,26145.44084,27396.02957,0.292967445,0.502658213,0.502918957
1752251542,4417,39305,38697,6-PEACE,6,4534.706648,38875.45376,38225.23697,0.380947166,0.503603875,0.496346186
1752251542,1040,29191,29591,6-PEACE,6,1160.751475,28486.9728,28852.33317,0.250854437,0.524637572,0.517683675
1752251542,1616,39689,41034,6-PEACE,6,1727.894739,38776.12784,40097.69591,0.270402736,0.512708143,0.522201041
1752251542,1296,28935,30631,6-PEACE,6,1388.02909,27899.86453,29586.20033,0.257925238,0.514661701,0.52013562
1752251542,1184,37801,38889,6-PEACE,6,1247.194048,36742.87209,37836.12816,0.262202074,0.500108562,0.50589775
1752251543,3984,29847,31479,6-PEACE,6,4012.369014,28868.36626,30520.11742,0.366364388,0.512170436,0.517529365
1752251543,1200,39529,39353,6-PEACE,6,1191.1122,38725.74751,38581.99613,0.272659394,0.519551891,0.513442149
1752251543,3424,30263,31223,6-PEACE,6,3379.096757,29715.01791,30716.37881,0.335434909,0.501776634,0.501231646
1752251543,1824,38057,38345,6-PEACE,6,1747.854771,37820.15678,38154.258,0.306813578,0.509168968,0.507069621
1752251543,1216,33464,34328,6-PEACE,6,1116.369393,33564.53885,34474.49658,0.23463874,0.513385414,0.512820952
1752251543,880,38633,38793,6-PEACE,6,766.792685,39064.72948,39265.64569,0.270573436,0.516648946,0.513848599
1752251543,1328,35064,35528,6-PEACE,6,1212.356162,35788.49823,36283.97034,0.234029615,0.507706081,0.50404591
1752251543,912,38281,38473,6-PEACE,6,805.2230676,39230.97033,39441.565,0.271641338,0.514224704,0.512453642
1752251543,2176,35144,35704,6-PEACE,6,2088.473201,36229.45501,36793.09198,0.266611475,0.48693717,0.484514637
1752251543,928,35208,36424,6-PEACE,6,868.1773902,36324.69198,37528.90012,0.267335029,0.484243912,0.492658333
1752251543,2544,37481,38169,6-PEACE,6,2517.577791,38520.47999,39182.45551,0.280898377,0.48768022,0.487147681
1752251543,1488,36552,36184,6-PEACE,6,1497.390129,37412.25875,37006.67265,0.281479899,0.489932285,0.4855802
1752251543,4673,37497,38729,6-PEACE,6,4717.159645,38092.40406,39279.14023,0.372598431,0.470833356,0.475503387
1752251543,3728,38985,38105,6-PEACE,6,3802.591716,39254.83433,38326.61918,0.362881449,0.499291014,0.492784131
1752251543,2368,40169,40457,6-PEACE,6,2465.695711,40083.71562,40325.58616,0.277379344,0.484024994,0.480389539
1752251543,1888,36232,35400,6-PEACE,6,1999.088278,35796.26809,34925.06372,0.266810294,0.454248668,0.450244715
1752251543,1968,42506,42954,6-PEACE,6,2081.40239,41758.60591,42178.49376,0.264965872,0.50133302,0.499391361
1752251543,1248,36953,37625,6-PEACE,6,1352.407178,35963.52459,36621.59975,0.219738998,0.434130033,0.447104524
1752251543,1616,42314,42714,6-PEACE,6,1700.999344,41176.29709,41578.24063,0.255312048,0.502537851,0.499735443
1752251544,5217,44762,42554,6-PEACE,6,5274.238947,43585.50762,41395.27091,0.368643798,0.474031312,0.464702991
1752251544,3808,25510,25958,6-PEACE,6,3832.075663,24408.77285,24888.57109,0.353874749,0.357546684,0.35167645
1752251544,1728,46011,44090,6-PEACE,6,1716.763402,45092.48584,43214.0639,0.200637307,0.453303667,0.449774989
1752251547,8930,62239,61679,7-THUMBS_UP,7,8878.749491,61382.41928,60896.18036,0.548003834,0.667413595,0.664920988
1752251547,5473,12387,14691,7-THUMBS_UP,7,5404.585049,11985.10939,14353.38247,0.428601625,0.424466358,0.433152634
1752251547,2752,33880,33048,7-THUMBS_UP,7,2673.78885,33973.40039,33189.70354,0.284951721,0.392788792,0.384859203
1752251547,4881,20004,21397,7-THUMBS_UP,7,4800.974246,20584.46326,22004.79763,0.399710159,0.493825176,0.493409366
1752251547,2800,37257,36712,7-THUMBS_UP,7,2726.112963,38269.05414,37727.43453,0.286985399,0.413281277,0.4105806
1752251547,1824,14851,16259,7-THUMBS_UP,7,1763.319734,16196.87114,17583.67359,0.268115415,0.440899931,0.438114262
1752251547,3568,38089,37721,7-THUMBS_UP,7,3526.054025,39637.97636,39226.02483,0.319224695,0.416049647,0.416581617
1752251547,1744,17492,19460,7-THUMBS_UP,7,1724.356801,19093.32562,20998.75317,0.265708249,0.45314403,0.455057649
1752251547,4465,40585,40569,7-THUMBS_UP,7,4468.976248,42082.57623,41991.44223,0.357066542,0.439486592,0.444640064
1752251547,1744,18468,20164,7-THUMBS_UP,7,1770.593339,19715.53954,21331.22081,0.268163293,0.443943034,0.443096943
1752251547,1040,39113,38857,7-THUMBS_UP,7,1085.92858,39988.19212,39654.64323,0.211634613,0.432969924,0.436006702
1752251547,4048,12947,14835,7-THUMBS_UP,7,4108.152982,13363.31084,15184.28998,0.36929692,0.368678913,0.368721265
1752251547,2640,34344,33656,7-THUMBS_UP,7,2708.135271,34259.12803,33521.4168,0.282304051,0.403069462,0.401143095
1752251547,2624,19572,21397,7-THUMBS_UP,7,2693.28696,18992.49701,20790.20864,0.3110418,0.397293043,0.39857186
1752251547,5793,37609,37033,7-THUMBS_UP,7,5856.745801,36590.02262,36012.09278,0.421455555,0.452306984,0.451538051
1752251548,1232,21061,22981,7-THUMBS_UP,7,1284.296096,19700.9293,21644.80743,0.253311065,0.374201247,0.377676944
1752251548,2896,40521,40153,7-THUMBS_UP,7,2932.101576,38951.94558,38631.5281,0.304655492,0.502104704,0.502954976
1752251548,3472,46971,46843,7-THUMBS_UP,7,3488.85286,45346.65204,45285.40643,0.349886918,0.571923419,0.562560457
1752251548,1920,36985,36280,7-THUMBS_UP,7,1916.544918,35465.41488,34839.7956,0.27076928,0.493554147,0.489469806
1752251548,1728,45339,46347,7-THUMBS_UP,7,1705.109265,44074.09169,45166.26866,0.276939934,0.521555985,0.524163125
1752251548,1856,31671,31639,7-THUMBS_UP,7,1816.364844,30785.71855,30834.37627,0.275280092,0.46565174,0.465472539
1752251548,1856,52716,53020,7-THUMBS_UP,7,1803.874673,52298.25011,52671.35774,0.285269214,0.559651774,0.558965081
1752251548,1440,37977,37561,7-THUMBS_UP,7,1380.739482,38069.24222,37703.82308,0.262895622,0.537983096,0.533945186
1752251548,1376,52748,52204,7-THUMBS_UP,7,1315.494994,53342.74401,52825.57461,0.269849145,0.539498045,0.532828926
1752251548,1312,38329,37369,7-THUMBS_UP,7,1256.100038,39369.22314,38409.36617,0.260135744,0.549932944,0.539548277
1752251548,1312,51340,50460,7-THUMBS_UP,7,1265.96004,52724.56649,51817.7025,0.27430603,0.515177745,0.50681103
1752251548,2000,38265,38345,7-THUMBS_UP,7,1968.010201,39858.47118,39887.00316,0.289598003,0.552941421,0.551133848
1752251548,1728,53309,53212,7-THUMBS_UP,7,1712.820157,54954.96106,54786.83233,0.300549331,0.529501205,0.530040867
1752251548,2784,30903,31047,7-THUMBS_UP,7,2786.728697,32439.19671,32499.39009,0.321391884,0.486131473,0.482949902
1752251548,1504,54621,54045,7-THUMBS_UP,7,1523.987561,55895.2971,55231.11554,0.299506378,0.544279418,0.541315331
1752251548,1680,44282,44842,7-THUMBS_UP,7,1714.897697,45167.9981,45644.25273,0.272079441,0.60631222,0.60939555
1752251548,1440,51804,51356,7-THUMBS_UP,7,1486.032496,52213.44442,51694.5921,0.303919652,0.526953702,0.524736444
1752251548,3744,39145,39993,7-THUMBS_UP,7,3796.456527,39036.05214,39833.33967,0.358308126,0.556494051,0.561799914
1752251548,1280,49628,49804,7-THUMBS_UP,7,1333.712394,49009.51811,49160.25673,0.301864845,0.521030273,0.523705112
1752251548,2752,40489,39529,7-THUMBS_UP,7,2801.767522,39420.02753,38462.98219,0.315325125,0.563456714,0.553152372
1752251549,1168,54429,53869,7-THUMBS_UP,7,1209.093601,53013.33025,52484.38332,0.299053541,0.585133306,0.580907798
1752251549,1616,40169,39673,7-THUMBS_UP,7,1644.606826,38545.06433,38105.2726,0.26741838,0.551474683,0.546636683
1752251549,1376,50188,49708,7-THUMBS_UP,7,1389.584459,48515.09821,48110.99363,0.307182167,0.574356846,0.568882729
1752251549,1408,44666,43914,7-THUMBS_UP,7,1405.551233,43108.82304,42444.9243,0.260070975,0.578349383,0.573276665
1752251549,1392,48523,48443,7-THUMBS_UP,7,1374.09424,47235.5055,47247.06343,0.304804933,0.594271037,0.590897973
1752251549,2608,39993,39497,7-THUMBS_UP,7,2576.749889,39102.95711,38692.83646,0.313417004,0.517033661,0.514746587
1752251549,1744,47947,47403,7-THUMBS_UP,7,1702.821998,47543.35559,47070.92155,0.314912007,0.629063358,0.620009265
1752251549,3888,33896,33128,7-THUMBS_UP,7,3841.24752,34019.96396,33301.93429,0.370485121,0.44046197,0.4356288
1752251549,1888,10098,11602,7-THUMBS_UP,7,1840.50045,10737.82756,12265.08067,0.314877064,0.325059342,0.326957087
1752251549,2112,37033,36664,7-THUMBS_UP,7,2068.474407,38125.35515,37750.47179,0.297108704,0.44976294,0.450065583
1752251549,848,16067,17412,7-THUMBS_UP,7,812.5619331,17504.41887,18814.87218,0.263852095,0.415107956,0.41574547
1752251549,1728,37865,37129,7-THUMBS_UP,7,1703.805901,39506.38801,38710.48633,0.282314227,0.444289487,0.441887127
1752251549,1808,6865,8001,7-THUMBS_UP,7,1797.025971,8549.050313,9605.619492,0.298553821,0.357164633,0.353570727
1752251549,1696,36776,36712,7-THUMBS_UP,7,1698.896619,38336.97573,38181.82165,0.28104832,0.430664763,0.434532516
1752251549,2960,20324,21557,7-THUMBS_UP,7,2976.075444,21608.64841,22747.79913,0.342808522,0.492796345,0.492281211
1752251549,992,37385,37273,7-THUMBS_UP,7,1019.309231,38267.62849,38068.42143,0.249129737,0.442599542,0.446051041
1752251549,1696,17380,20020,7-THUMBS_UP,7,1731.505076,17774.31098,20342.50105,0.286020922,0.466137796,0.478138212
1752251549,4513,37849,36712,7-THUMBS_UP,7,4553.018663,37716.51526,36530.37067,0.395240415,0.461569208,0.455242128
1752251549,1312,16067,16836,7-THUMBS_UP,7,1352.610096,15420.85612,16168.33439,0.268907915,0.443644256,0.438238752
1752251549,1744,42394,42314,7-THUMBS_UP,7,1781.251008,41297.75928,41226.06522,0.271307651,0.522490275,0.526301004
1752251550,1152,22389,23109,7-THUMBS_UP,7,1182.30304,20950.61402,21708.02448,0.263287613,0.483716724,0.479375699
1752251550,1328,36168,35672,7-THUMBS_UP,7,1348.537638,34528.89578,34095.78118,0.246484184,0.485935158,0.484150458
1752251550,2080,23893,24918,7-THUMBS_UP,7,2089.016993,22214.0577,23321.24347,0.305414504,0.476874754,0.476056962
1752251550,1984,37545,36488,7-THUMBS_UP,7,1980.979345,35990.98812,35027.35631,0.267146761,0.515720173,0.50840717
1752251553,1728,61455,58798,8-HOOK_GRIP,8,1744.025454,60182.55044,57632.28683,0.244994646,0.673594377,0.648286342
1752251553,5281,55885,52828,8-HOOK_GRIP,8,5302.436772,54995.82494,52034.46767,0.37969807,0.668743323,0.640513047
1752251553,1232,34072,35512,8-HOOK_GRIP,8,1256.715648,33653.31819,35168.37757,0.237151236,0.477694048,0.471414935
1752251553,2112,31863,32920,8-HOOK_GRIP,8,2137.299626,31954.78306,33058.91672,0.239074556,0.422528647,0.436060024
1752251553,2800,10642,19188,8-HOOK_GRIP,8,2822.973317,11233.27143,19794.08431,0.310842231,0.315251389,0.357755771
1752251553,5761,33368,33960,8-HOOK_GRIP,8,5779.035293,34398.80333,34972.13045,0.39797176,0.412639249,0.428567245
1752251553,2160,4817,14115,8-HOOK_GRIP,8,2171.014488,6184.947494,15432.76577,0.282458425,0.303418047,0.341868272
1752251553,1504,21365,24982,8-HOOK_GRIP,8,1506.457799,22935.05921,26475.37524,0.228217043,0.289217463,0.334603083
1752251553,944,12963,21637,8-HOOK_GRIP,8,937.0913176,14581.1907,23159.50424,0.22324761,0.40402437,0.43237088
1752251553,5169,35896,36072,8-HOOK_GRIP,8,5152.993229,37405.20643,37475.60045,0.401481948,0.41995737,0.436142612
1752251553,5649,19028,25238,8-HOOK_GRIP,8,5625.417738,20283.15089,26387.38075,0.414160124,0.468836156,0.474114741
1752251553,1040,37305,36969,8-HOOK_GRIP,8,1011.260815,38186.63347,37754.31028,0.242939847,0.444004082,0.452531685
1752251553,5809,24421,29175,8-HOOK_GRIP,8,5778.046551,24846.59316,29522.34438,0.41337003,0.511697007,0.507165565
1752251553,960,38329,37977,8-HOOK_GRIP,8,930.1096382,38260.65772,37855.37557,0.253288647,0.474856999,0.477923712
1752251554,2064,14195,20997,8-HOOK_GRIP,8,2038.333029,13642.36353,20420.70224,0.251343684,0.40024743,0.418465554
1752251554,752,43210,42746,8-HOOK_GRIP,8,733.2642036,42229.12106,41773.09415,0.252007841,0.546471841,0.542910068
1752251554,1808,27206,31031,8-HOOK_GRIP,8,1798.262413,25894.3057,29757.98089,0.244386739,0.494103814,0.494051066
1752251554,4129,31367,32455,8-HOOK_GRIP,8,4129.56027,29853.16968,31006.82058,0.397143326,0.465339185,0.468040674
1752251554,1792,31895,33768,8-HOOK_GRIP,8,1803.235972,30326.12724,32285.61998,0.253172074,0.512862065,0.502376273
1752251554,1056,36104,36632,8-HOOK_GRIP,8,1077.111578,34631.77115,35259.07762,0.261924788,0.528291412,0.522503423
1752251554,1024,34440,36040,8-HOOK_GRIP,8,1053.037418,33205.98814,34908.97408,0.233765406,0.519393658,0.512281055
1752251554,960,35320,36232,8-HOOK_GRIP,8,994.1246591,34441.91905,35451.2057,0.249871793,0.528955075,0.525065198
1752251554,1104,39193,40121,8-HOOK_GRIP,8,1139.784905,38753.55669,39764.35813,0.252663908,0.557943949,0.548832763
1752251554,1168,36088,36856,8-HOOK_GRIP,8,1201.781667,36127.16712,36956.06272,0.248562595,0.52938586,0.525542586
1752251554,3968,41882,42602,8-HOOK_GRIP,8,3996.328721,42393.34912,43146.95486,0.39073884,0.590864983,0.581625839
1752251554,1488,28839,30695,8-HOOK_GRIP,8,1507.994218,29770.36422,31629.83646,0.25145346,0.443827621,0.452213817
1752251554,1184,40249,41034,8-HOOK_GRIP,8,1193.483841,41507.66315,42265.94045,0.286629706,0.595014633,0.585941781
1752251554,4961,48443,45851,8-HOOK_GRIP,8,4958.823887,49905.65012,47259.28029,0.390081603,0.594629614,0.569932482
1752251554,1328,27622,28614,8-HOOK_GRIP,8,1314.254987,29146.49569,30061.39716,0.30406974,0.504085268,0.49396332
1752251554,1168,51276,48395,8-HOOK_GRIP,8,1143.8216,52714.70806,49740.84253,0.222013525,0.591365671,0.569146902
1752251554,1440,25254,27222,8-HOOK_GRIP,8,1407.476827,26468.35615,28336.12622,0.315273978,0.505096286,0.503314191
1752251554,8498,61775,59342,8-HOOK_GRIP,8,8460.301729,62649.046,60117.5611,0.532482126,0.662852214,0.650483269
1752251554,2816,25990,27222,8-HOOK_GRIP,8,2777.103454,26441.52212,27585.72958,0.374967659,0.527835424,0.519908242
1752251555,2992,47067,44602,8-HOOK_GRIP,8,2955.920313,47054.5495,44520.41431,0.299766638,0.513553715,0.500668525
1752251555,1488,28502,29079,8-HOOK_GRIP,8,1458.303553,28028.72548,28561.51529,0.314789023,0.558069992,0.545909337
1752251555,1984,46267,44522,8-HOOK_GRIP,8,1963.575631,45380.53197,43620.27374,0.261571954,0.500092163,0.495077241
1752251555,816,26758,27622,8-HOOK_GRIP,8,806.7962842,25545.54931,26424.69085,0.279893594,0.541653108,0.533668909
1752251555,1184,46411,46171,8-HOOK_GRIP,8,1186.845386,44990.81345,44795.10783,0.232884059,0.502320015,0.511891681
1752251555,1056,28406,29063,8-HOOK_GRIP,8,1070.553903,26915.93388,27642.52479,0.283335746,0.550710362,0.542888372
1752251555,2464,42858,42378,8-HOOK_GRIP,8,2488.849205,41442.05285,41050.75688,0.29162643,0.474795413,0.481723168
1752251555,1104,25654,27334,8-HOOK_GRIP,8,1136.790465,24448.2938,26228.17726,0.279608512,0.516994436,0.519572871
1752251555,3520,48763,46139,8-HOOK_GRIP,8,3557.653218,47882.97235,45361.00146,0.338526283,0.534418542,0.522616513
1752251555,1040,21077,22405,8-HOOK_GRIP,8,1078.998101,20606.31966,22029.13338,0.27265824,0.465832995,0.465279951
1752251555,816,40825,39513,8-HOOK_GRIP,8,852.6102034,40807.24844,39574.1073,0.222879533,0.467170607,0.466018851
1752251555,3792,21493,22389,8-HOOK_GRIP,8,3822.708528,21927.79087,22879.37622,0.38682523,0.460084887,0.456339877
1752251555,2288,40393,39513,8-HOOK_GRIP,8,2309.963308,41236.43058,40383.49694,0.284057441,0.466624282,0.46897537
1752251555,1536,19652,21237,8-HOOK_GRIP,8,1547.169613,20821.01357,22401.91306,0.287314934,0.433659632,0.436759379
1752251555,7473,39609,36921,8-HOOK_GRIP,8,7472.414683,40989.54597,38266.42572,0.503699377,0.461166225,0.445636088
1752251555,1328,17988,19188,8-HOOK_GRIP,8,1315.922962,19446.1534,20582.93656,0.273763535,0.408155966,0.408402804
1752251555,1536,37609,36760,8-HOOK_GRIP,8,1513.568072,39003.90463,38069.15491,0.25036996,0.443337138,0.443041638
1752251555,1648,29479,29767,8-HOOK_GRIP,8,1617.131391,30676.81816,30864.24251,0.280663865,0.500919442,0.49613954
1752251555,1312,33096,33112,8-HOOK_GRIP,8,1275.390538,33982.66545,33892.40098,0.24239044,0.402113039,0.407140282
1752251555,2720,28550,29095,8-HOOK_GRIP,8,2680.912046,29041.71907,29484.54101,0.317501654,0.478072852,0.47706315
1752251556,912,41402,41914,8-HOOK_GRIP,8,873.9700746,41453.5028,41876.91986,0.228694096,0.478216082,0.487326192
1752251556,3136,29815,31111,8-HOOK_GRIP,8,3102.503352,29423.74683,30653.13329,0.324418763,0.471603228,0.479439343
1752251556,1456,36536,37113,8-HOOK_GRIP,8,1430.160896,35741.8236,36280.61772,0.25706828,0.436189427,0.443023483
1752251556,1344,29511,30503,8-HOOK_GRIP,8,1328.240832,28392.01756,29378.07114,0.235311102,0.446548393,0.453108929
1752251556,3456,47979,47995,8-HOOK_GRIP,8,3451.854809,46644.38501,46687.55869,0.349505417,0.545136251,0.547119085
1752251556,1264,30503,31191,8-HOOK_GRIP,8,1272.012256,29082.37806,29828.42988,0.217399873,0.429309974,0.434736303
1752251559,5601,62255,61695,9-FLAT_PALM,9,5614.293987,61087.40388,60594.61634,0.446134256,0.80435243,0.779119526
1752251559,6929,48779,48395,9-FLAT_PALM,9,6961.970966,47758.323,47473.03018,0.481566775,0.603784317,0.598167837
1752251559,1776,31879,33064,9-FLAT_PALM,9,1826.168335,31105.25283,32411.08875,0.291350336,0.526279262,0.513922615
1752251559,1392,43114,42602,9-FLAT_PALM,9,1454.820783,42660.96245,42280.56984,0.241298056,0.554902623,0.546094038
1752251559,1568,37785,37721,9-FLAT_PALM,9,1637.370751,37694.19334,37760.20599,0.288206426,0.579769596,0.559004698
1752251559,2336,44634,44234,9-FLAT_PALM,9,2405.030483,44911.10059,44627.30851,0.280516908,0.573283014,0.565011028
1752251559,2080,36488,37497,9-FLAT_PALM,9,2141.715451,37102.40123,38202.95766,0.312062472,0.564748634,0.556225667
1752251559,3056,47083,46091,9-FLAT_PALM,9,3104.03828,47971.17133,47037.58231,0.313958915,0.606234309,0.591578382
1752251559,1616,33400,34680,9-FLAT_PALM,9,1645.238347,34471.9816,35771.86865,0.290205518,0.526896008,0.523845278
1752251559,3536,50380,48635,9-FLAT_PALM,9,3543.09051,51528.51783,49763.10627,0.340802991,0.65551682,0.631994558
1752251559,2528,34216,35688,9-FLAT_PALM,9,2511.782269,35327.29126,36740.56474,0.323308927,0.516849762,0.520557294
1752251559,1920,38105,38089,9-FLAT_PALM,9,1881.602774,39069.64089,38962.21687,0.281026749,0.57097613,0.557519708
1752251560,1472,34824,35992,9-FLAT_PALM,9,1414.721756,35547.6624,36600.2421,0.26984608,0.499047495,0.505911406
1752251560,1136,16532,19668,9-FLAT_PALM,9,1065.054273,16944.4104,19951.9913,0.258069152,0.406032474,0.41336416
1752251560,1120,44586,42602,9-FLAT_PALM,9,1042.063401,44648.00663,42534.7585,0.245179111,0.562857957,0.548378316
1752251560,2432,19524,22613,9-FLAT_PALM,9,2354.642642,19231.95538,22202.98181,0.323604793,0.463793801,0.466809096
1752251560,3824,45819,42730,9-FLAT_PALM,9,3755.034842,45204.64664,42019.91137,0.350961636,0.551728109,0.532646427
1752251560,768,20116,22933,9-FLAT_PALM,9,714.6141811,19242.99198,21995.29786,0.261510469,0.494111283,0.491278013
1752251560,4032,41402,38425,9-FLAT_PALM,9,3999.940936,40359.17969,37354.39695,0.351365353,0.494800025,0.479894967
1752251560,1248,18180,20741,9-FLAT_PALM,9,1241.021118,17072.31025,19644.84825,0.28881766,0.493242688,0.48581419
1752251560,1216,39849,38729,9-FLAT_PALM,9,1235.350593,38787.021,37716.67081,0.224183858,0.470225532,0.474423622
1752251560,880,19156,21525,9-FLAT_PALM,9,924.2244006,18245.00591,20697.06809,0.277914952,0.510373869,0.501136338
1752251560,2992,41162,39273,9-FLAT_PALM,9,3057.16289,40491.6146,38711.27097,0.294125938,0.476859718,0.474642641
1752251560,1920,18580,22245,9-FLAT_PALM,9,2000.07127,18215.34675,22004.43507,0.325106745,0.505851497,0.509690739
1752251560,784,38841,37497,9-FLAT_PALM,9,871.3010324,38816.28343,37600.28069,0.195638954,0.453798306,0.4555067
1752251560,752,16275,18948,9-FLAT_PALM,9,837.8783532,16590.25966,19383.28504,0.275998677,0.479157272,0.475376023
1752251560,2848,37817,38025,9-FLAT_PALM,9,2923.803023,38438.37514,38747.31584,0.281334613,0.444841483,0.459377675
1752251560,1008,12851,15875,9-FLAT_PALM,9,1065.984038,13714.30353,16810.87594,0.28486487,0.436181003,0.437505041
1752251560,5985,36536,35288,9-FLAT_PALM,9,6019.148658,37553.31683,36342.83336,0.415616656,0.435911057,0.434961973
1752251560,2000,16996,20372,9-FLAT_PALM,9,2006.665936,18064.8246,21439.80684,0.321861021,0.455510714,0.463567703
1752251560,6145,35880,34792,9-FLAT_PALM,9,6123.209765,36893.56269,35766.10687,0.426203832,0.43600434,0.434526562
1752251561,2096,16564,18548,9-FLAT_PALM,9,2047.55607,17421.79145,19331.51153,0.31758727,0.425823851,0.423754621
1752251561,944,36520,36760,9-FLAT_PALM,9,873.1899043,37137.76128,37275.49195,0.210980411,0.452211914,0.461124925
1752251561,3584,14883,17812,9-FLAT_PALM,9,3497.259739,15200.95583,18009.19093,0.370678753,0.377487954,0.386991591
1752251561,1088,29143,29607,9-FLAT_PALM,9,993.4797712,29131.41567,29467.40027,0.225208572,0.399710535,0.407088298
1752251561,1024,13795,16852,9-FLAT_PALM,9,930.6896231,13456.9691,16390.63396,0.250770976,0.328988772,0.342793797
1752251561,4305,35544,33912,9-FLAT_PALM,9,4221.959839,34915.32789,33176.118,0.370507574,0.475302874,0.461991537
1752251561,1392,44730,44938,9-FLAT_PALM,9,1327.562512,43876.31478,44003.05015,0.256897328,0.570032228,0.56643
1752251561,1456,40009,40393,9-FLAT_PALM,9,1416.768719,39018.88203,39354.97622,0.255861758,0.532873704,0.536774337
1752251561,1344,50908,50076,9-FLAT_PALM,9,1334.163464,49883.15076,49040.98857,0.247714387,0.588242473,0.579254349
1752251561,2320,40233,40393,9-FLAT_PALM,9,2340.989904,39277.71336,39466.19049,0.297292458,0.548042659,0.547908166
1752251561,6433,51644,50988,9-FLAT_PALM,9,6483.446148,50854.42611,50262.90459,0.460740703,0.563811695,0.559183124
1752251561,4497,40649,40793,9-FLAT_PALM,9,4572.833282,40103.49055,40342.04776,0.392044255,0.558776472,0.557146428
1752251561,2896,57021,55949,9-FLAT_PALM,9,2990.528716,56772.47021,55816.42369,0.309227978,0.591248732,0.585572633
1752251561,4353,37017,37529,9-FLAT_PALM,9,4457.428944,37087.69089,37726.40168,0.385388543,0.526063699,0.526401953
1752251561,4209,50636,49564,9-FLAT_PALM,9,4313.3786,51015.18543,50069.04014,0.367191624,0.521562212,0.515758094
1752251561,1264,40857,40089,9-FLAT_PALM,9,1358.087949,41502.61297,40848.03682,0.251547756,0.556587142,0.545474794
1752251561,1232,52796,52508,9-FLAT_PALM,9,1306.153188,53639.46475,53442.00192,0.24376393,0.537808591,0.540105413
1752251561,1904,40585,40233,9-FLAT_PALM,9,1950.258248,41538.35112,41245.67034,0.276309341,0.548254176,0.540945387
1752251561,1600,53212,52188,9-FLAT_PALM,9,1613.025789,54176.96459,53175.58007,0.263108322,0.543120182,0.53870317
1752251561,1472,40473,39945,9-FLAT_PALM,9,1449.650221,41351.09597,40806.85618,0.256213543,0.543800577,0.534792163
1752251562,1488,50860,48907,9-FLAT_PALM,9,1431.607317,51562.48372,49555.77037,0.260877788,0.524829034,0.511267621
1752251562,1024,38393,39753,9-FLAT_PALM,9,938.3258107,38849.76275,40123.43264,0.237200687,0.526929041,0.534763342
1752251562,1296,50716,50396,9-FLAT_PALM,9,1188.840941,50882.61536,50451.63501,0.253390614,0.525824414,0.527374746
1752251562,1760,42682,42042,9-FLAT_PALM,9,1641.515786,42544.21465,41778.82206,0.270692746,0.574950008,0.56427944
1752251562,1200,54397,52700,9-FLAT_PALM,9,1081.754916,53972.03095,52146.71331,0.248180955,0.560000335,0.549543988
1752251562,5089,41578,40841,9-FLAT_PALM,9,4982.906547,40912.33822,40055.83784,0.416232503,0.580132748,0.567226877
1752251562,3584,53773,52956,9-FLAT_PALM,9,3501.189011,52937.26757,52020.57578,0.347691843,0.554148501,0.551973304
1752251562,1376,41306,41434,9-FLAT_PALM,9,1325.466205,40387.53282,40444.91067,0.261851212,0.596781459,0.590430871
1752251565,6497,62287,61711,10-OK_SIGN,10,6456.685152,61695.45488,60954.5926,0.459485467,0.718967098,0.711076748
1752251565,4465,34488,34456,10-OK_SIGN,10,4482.658364,33981.12755,33821.00064,0.406903475,0.473331875,0.468806909
1752251565,1072,15907,17892,10-OK_SIGN,10,1146.355081,15534.74973,17441.27032,0.23847948,0.335146685,0.338825065
1752251565,1008,37625,37433,10-OK_SIGN,10,1131.812358,37421.79071,37209.39645,0.242623478,0.490120082,0.486206135
1752251565,1088,19588,21493,10-OK_SIGN,10,1248.920482,19570.92455,21516.60721,0.253435446,0.406813017,0.407166271
1752251565,1776,37481,37433,10-OK_SIGN,10,1957.91555,37648.33794,37699.26179,0.256105861,0.47679838,0.475376479
1752251565,2640,20132,22597,10-OK_SIGN,10,2824.686642,20463.63187,23077.31623,0.33486101,0.444619954,0.447705208
1752251565,3552,39497,39257,10-OK_SIGN,10,3720.97322,39956.79981,39901.82139,0.313583227,0.486168923,0.484129959
1752251565,864,18372,20517,10-OK_SIGN,10,1000.270671,18911.66314,21260.83369,0.272020669,0.452497254,0.450467685
1752251565,4561,36760,36712,10-OK_SIGN,10,4650.758484,37323.95877,37479.92596,0.342685304,0.457008293,0.4567686
1752251565,1184,20228,22357,10-OK_SIGN,10,1218.069984,20759.22456,23072.31058,0.293331699,0.482658209,0.47968846
1752251566,1904,36120,36488,10-OK_SIGN,10,1878.67343,36565.81097,37079.91458,0.222238217,0.451780791,0.455684065
1752251566,1008,22917,25142,10-OK_SIGN,10,925.4225757,23234.30876,25552.68629,0.286571672,0.509719555,0.507619544
1752251566,6641,37081,37273,10-OK_SIGN,10,6509.196729,37240.51193,37463.24596,0.424870665,0.46511885,0.4679077
1752251566,2112,21173,24005,10-OK_SIGN,10,1944.131307,21161.78451,23957.84365,0.327245046,0.486516753,0.489867933
1752251566,2304,34408,35544,10-OK_SIGN,10,2116.800805,34230.39255,35266.1565,0.24793383,0.448393252,0.459660337
1752251566,2704,23109,25318,10-OK_SIGN,10,2516.099706,22785.96216,24839.0667,0.340068352,0.487851229,0.486715558
1752251566,3008,35576,35560,10-OK_SIGN,10,2838.209257,35142.82505,34929.37533,0.291644689,0.469009081,0.469626587
1752251566,1312,20517,24037,10-OK_SIGN,10,1177.376118,20019.37838,23318.73577,0.264286514,0.439941678,0.452466883
1752251566,1248,35976,36232,10-OK_SIGN,10,1162.068755,35465.20873,35498.32912,0.233716588,0.484459984,0.486926072
1752251566,1408,24710,27606,10-OK_SIGN,10,1379.439828,24237.82364,26930.21813,0.250302167,0.447168166,0.457735242
1752251566,2688,37193,37145,10-OK_SIGN,10,2719.855027,36806.51482,36594.16058,0.313215941,0.508187738,0.506651611
1752251566,2000,25766,28038,10-OK_SIGN,10,2089.371665,25502.80106,27666.18333,0.258146914,0.421491761,0.430472309
1752251566,3360,37545,38073,10-OK_SIGN,10,3498.287922,37429.52455,37916.00999,0.358626976,0.52302896,0.525052333
1752251566,7281,50732,49468,10-OK_SIGN,10,7454.856998,50773.92339,49540.49692,0.468686994,0.612493116,0.597742878
1752251566,2080,36552,36536,10-OK_SIGN,10,2272.56512,36745.41215,36830.06864,0.317462854,0.52209249,0.516990495
1752251566,2752,50220,49324,10-OK_SIGN,10,2944.262817,50543.46157,49809.41224,0.265326077,0.574228704,0.567228669
1752251566,1680,39241,39465,10-OK_SIGN,10,1852.699323,39659.98506,40092.43421,0.308998585,0.548742716,0.544927376
1752251566,3072,50844,49868,10-OK_SIGN,10,3207.683362,51314.58342,50574.05936,0.274121204,0.552188342,0.548304389
1752251566,1120,39097,39353,10-OK_SIGN,10,1204.779362,39570.35983,40066.52179,0.288086602,0.542291388,0.538127001
1752251566,3440,52284,49820,10-OK_SIGN,10,3464.970402,52711.4836,50469.19823,0.290629645,0.545201896,0.5304438
1752251567,2064,39577,39193,10-OK_SIGN,10,2026.21086,39915.12523,39712.67337,0.325640492,0.534428601,0.524715649
1752251567,5201,50556,49420,10-OK_SIGN,10,5103.831373,50770.78029,49758.05946,0.371666217,0.517001186,0.515799864
1752251567,2096,42522,42170,10-OK_SIGN,10,1948.838302,42592.4221,42292.76745,0.319456252,0.54368235,0.535866762
1752251567,2032,55005,52604,10-OK_SIGN,10,1849.197288,54925.24696,52499.65699,0.246194194,0.551173875,0.539639959
1752251567,1728,48507,48059,10-OK_SIGN,10,1527.464864,48286.99792,47738.8037,0.293122751,0.578141484,0.571938171
1752251567,3744,51244,49708,10-OK_SIGN,10,3545.578855,50908.01489,49204.91367,0.33018418,0.51426476,0.510141103
1752251567,1200,41594,40697,10-OK_SIGN,10,1023.510911,41177.64414,40061.94792,0.259556535,0.496001857,0.485590185
1752251567,3088,50956,49932,10-OK_SIGN,10,2951.191261,50502.57836,49228.80932,0.311386336,0.509830372,0.510422409
1752251567,1296,39881,40041,10-OK_SIGN,10,1212.785578,39437.16891,39340.18071,0.255500786,0.46523938,0.464903217
1752251567,1616,49948,48283,10-OK_SIGN,10,1595.025543,49558.96292,47654.63496,0.252527496,0.497039615,0.491878976
1752251567,1328,40889,41882,10-OK_SIGN,10,1371.746759,40593.99004,41388.81566,0.254856771,0.465860626,0.473004542
1752251567,1504,53228,51660,10-OK_SIGN,10,1608.537592,53056.44853,51351.2516,0.24356935,0.519488001,0.5168731
1752251567,2816,49420,49756,10-OK_SIGN,10,2971.376196,49388.81091,49662.72497,0.32452265,0.543059681,0.544077451
1752251567,1872,47147,46395,10-OK_SIGN,10,2063.199543,47258.62932,46526.66641,0.245928743,0.452076318,0.457682839
1752251567,1904,42730,42570,10-OK_SIGN,10,2112.328001,42971.85685,42913.13483,0.299961312,0.489605043,0.482187
1752251567,2880,48459,47979,10-OK_SIGN,10,3084.925409,48805.0433,48498.75151,0.267946294,0.448176954,0.458830038
1752251567,1328,42842,43354,10-OK_SIGN,10,1509.185896,43255.7029,43997.88773,0.295061985,0.503957812,0.4996373
1752251567,5681,57790,53132,10-OK_SIGN,10,5820.36845,58228.40112,53835.30114,0.362848132,0.516057102,0.4919589
1752251567,1552,38297,38681,10-OK_SIGN,10,1635.555148,38715.01782,39373.09423,0.324719881,0.478044832,0.46865224
1752251567,5217,58958,57117,10-OK_SIGN,10,5236.141669,59312.82932,57728.41661,0.320549636,0.512152071,0.516225538
1752251568,1104,38825,39833,10-OK_SIGN,10,1056.387427,39080.62124,40302.53919,0.320552569,0.49591418,0.490266794
1752251568,5121,60942,56765,10-OK_SIGN,10,5010.836525,61072.84945,57045.73022,0.301428504,0.522135413,0.505512764
1752251568,992,42554,43770,10-OK_SIGN,10,829.6760386,42547.61026,43834.01822,0.32090648,0.536386881,0.532780435
1752251568,7825,59678,57502,10-OK_SIGN,10,7626.192324,59536.0966,57343.23135,0.412888021,0.51188303,0.51271939
1752251568,1872,39625,41322,10-OK_SIGN,10,1656.186872,39363.04244,40956.59795,0.351523965,0.507087051,0.508775584
1752251568,7361,60958,58318,10-OK_SIGN,10,7149.468015,60603.5863,57782.70912,0.401305769,0.535084986,0.529401019
1752251568,928,40633,41290,10-OK_SIGN,10,741.6968816,40223.08464,40638.53373,0.293148306,0.504064704,0.499543443
1752251568,4753,61150,58462,10-OK_SIGN,10,4610.403911,60727.02925,57759.64136,0.308213687,0.557374693,0.547680586
1752251568,2304,41802,41626,10-OK_SIGN,10,2219.352714,41409.53876,40943.08021,0.325914542,0.494732787,0.487404771
1752251571,7041,43706,43514,0-OPEN,0,6970.036605,43437.16005,42953.17127,0.472924939,0.510448615,0.529852968
1752251571,3040,40729,39705,0-OPEN,0,3036.80178,40563.72423,39266.19489,0.330740281,0.471823132,0.506005491
1752251571,1552,40505,41258,0-OPEN,0,1616.808321,40460.70807,40985.13072,0.225888795,0.471579573,0.504247378
1752251571,2336,38025,40057,0-OPEN,0,2462.132574,38106.70721,39976.98756,0.30717366,0.437774917,0.50909716
1752251571,2896,40697,42298,0-OPEN,0,3070.724743,40896.85337,42418.21156,0.269715493,0.45900813,0.508874518
1752251571,1152,41466,39913,0-OPEN,0,1357.804539,41764.20041,40220.56048,0.262470831,0.462658954,0.506139005
1752251571,2176,43914,41274,0-OPEN,0,2392.287487,44280.84419,41737.10285,0.225953014,0.468829116,0.494018726
1752251571,1328,58238,40313,0-OPEN,0,1533.184536,58637.2007,40884.19861,0.274191373,0.612836463,0.506871547
1752251571,4032,48715,39993,0-OPEN,0,4205.72847,49107.31453,40614.04701,0.293819496,0.488497091,0.476486378
1752251572,1696,45531,39033,0-OPEN,0,1821.173723,45877.27546,39640.72518,0.291224628,0.498195429,0.490775887
1752251572,3312,61711,44506,0-OPEN,0,3376.385107,61976.29978,45038.87866,0.255350528,0.580136187,0.512539908
1752251572,1024,47707,40441,0-OPEN,0,1021.393288,47864.5298,40845.44191,0.25966649,0.521105741,0.498593744
1752251572,4225,61743,43962,0-OPEN,0,4155.870536,61776.45311,44197.59058,0.291510891,0.553991585,0.501448641
1752251572,3056,47419,41034,0-OPEN,0,2927.496452,47324.17098,41077.51052,0.338414572,0.521449474,0.4980552
1752251572,7409,61759,45323,0-OPEN,0,7234.276531,61544.28658,45170.72747,0.430021461,0.531002136,0.507852256
1752251572,1984,47707,40873,0-OPEN,0,1780.788631,47392.68437,40541.05416,0.28039324,0.524942923,0.49019783
1752251572,3712,61743,44026,0-OPEN,0,3500.626558,61359.33669,43548.53734,0.279640104,0.513412614,0.489166654
1752251572,1664,49180,40665,0-OPEN,0,1465.374787,48764.34034,40090.71983,0.252169084,0.535987625,0.482277454
1752251572,2336,61695,42810,0-OPEN,0,2169.61532,61288.15898,42197.19281,0.230275936,0.502503785,0.470507121
1752251572,3616,43162,41578,0-OPEN,0,3498.081647,42804.04758,40988.67533,0.321811928,0.475496471,0.485937691
1752251572,3040,61807,45083,0-OPEN,0,2981.983713,61533.3234,44576.7207,0.268524789,0.500101223,0.483223603
1752251572,4769,47355,40841,0-OPEN,0,4776.401833,47193.08938,40468.82934,0.361692116,0.505553436,0.476148937
1752251572,6817,61727,44426,0-OPEN,0,6888.977173,61693.68664,44225.28104,0.434063908,0.502003813,0.467575366
1752251572,4977,52956,40025,0-OPEN,0,5106.418967,53055.75296,40015.61269,0.367855243,0.547704669,0.467970516
1752251572,2272,61807,42762,0-OPEN,0,2445.914414,62031.37527,42944.367,0.239716604,0.509579277,0.441587334
1752251572,1856,48507,40425,0-OPEN,0,2056.852539,48835.06133,40780.12726,0.239234161,0.499861919,0.473620296
1752251572,3856,61743,46699,0-OPEN,0,4063.559372,62143.26157,47190.59941,0.302037154,0.517639838,0.467009208
1752251572,3104,43546,39769,0-OPEN,0,3297.514783,43979.42969,40347.15807,0.302958227,0.45139506,0.472032016
1752251572,3168,61727,61054,0-OPEN,0,3328.207915,62150.82272,61660.51944,0.264577607,0.525202251,0.588943595
1752251573,1552,58510,54269,0-OPEN,0,1662.965903,58882.4606,54843.66274,0.251028328,0.59090929,0.613912095
1752251573,6353,61711,61166,0-OPEN,0,6403.804963,61995.47235,61652.1478,0.391878037,0.529154349,0.578425722
1752251573,5121,44426,42090,0-OPEN,0,5106.954924,44593.78828,42439.38279,0.418381319,0.474591529,0.510992722
1752251573,5265,61759,61182,0-OPEN,0,5187.959159,61792.22946,61359.556,0.33915303,0.528007442,0.566682074
1752251573,3536,46491,45947,0-OPEN,0,3403.99149,46384.94953,45934.80807,0.364269557,0.515032961,0.560487582
1752251573,5137,61743,61198,0-OPEN,0,4963.419421,61506.70571,60997.08491,0.331541635,0.519782591,0.554402332
1752251573,1360,50684,48955,0-OPEN,0,1162.23806,50339.5617,48585.22545,0.281310734,0.58402131,0.605654637
1752251573,5009,61727,61150,0-OPEN,0,4806.702954,61307.5211,60648.10535,0.329182681,0.506034992,0.541288132
1752251573,1344,50316,48059,0-OPEN,0,1157.179671,49862.28561,47474.84766,0.285851844,0.618181096,0.617370984
1752251573,2192,59918,55629,0-OPEN,0,2038.982786,59474.54293,55020.47806,0.217364359,0.473263503,0.478299638
1752251573,1088,17732,23893,0-OPEN,0,983.6245082,17341.73915,23319.65468,0.275704334,0.361645799,0.413973846
1752251573,5345,61759,57646,0-OPEN,0,5299.34349,61459.26787,57163.42191,0.364163784,0.475012393,0.488299418
1752251573,1312,23877,27622,0-OPEN,0,1329.41987,23697.01919,27277.20537,0.2826625,0.455825282,0.468392637
1752251573,848,61759,57117,0-OPEN,0,926.5089217,61716.98685,56943.78535,0.186927961,0.465077632,0.479689307
1752251573,880,15315,21029,0-OPEN,0,1011.469875,15415.92155,21044.35007,0.259916317,0.410635386,0.423661445
1752251573,4369,61711,55069,0-OPEN,0,4540.219928,61946.00339,55271.38245,0.351605356,0.462009875,0.463199932
1752251573,1216,7953,15715,0-OPEN,0,1410.022546,8300.210529,16084.55325,0.269761709,0.369462286,0.386779241
1752251573,2320,61759,53196,0-OPEN,0,2517.663931,62185.55217,53696.48506,0.27710537,0.467189803,0.454353589
1752251573,3216,17700,23045,0-OPEN,0,3397.866031,18165.61033,23627.6969,0.351322864,0.477807562,0.463903569
1752251573,1088,60750,50140,0-OPEN,0,1236.282832,61210.73305,50748.41266,0.235042616,0.468656788,0.439237833
1752251574,1520,25798,29495,0-OPEN,0,1620.204368,26210.35845,30070.30322,0.275903072,0.566424774,0.53061936
1752251574,1088,61855,57726,0-OPEN,0,1130.369867,62180.0789,58213.01163,0.243589972,0.493897589,0.526380943
1752251574,2000,12835,19620,0-OPEN,0,1980.52701,13041.57062,19972.01821,0.292736613,0.459182031,0.444046978
1752251574,2480,40121,31367,0-OPEN,0,2400.83996,40187.87919,31549.34415,0.310853661,0.316129087,0.301505652
1752251574,2112,31415,34296,0-OPEN,0,1981.227557,31334.08056,34290.09661,0.2919434,0.633347513,0.58285554
1752251574,4609,57902,50796,0-OPEN,0,4439.807407,57680.2795,50602.52514,0.409990049,0.506006877,0.506900257
1752251574,2208,7489,15619,0-OPEN,0,2017.36843,7146.821585,15256.88913,0.288014307,0.410799886,0.406542639
1752251574,1360,51148,39401,0-OPEN,0,1166.850622,50716.52375,38904.75168,0.280031533,0.48466194,0.433640891
1752251574,1232,6481,15235,0-OPEN,0,1055.288945,6000.012958,14651.8969,0.23715891,0.383073593,0.391909162
1752251574,2288,50700,41098,0-OPEN,0,2144.974524,50214.43842,40483.97117,0.326404186,0.535964889,0.491630873
1752251574,2560,6817,16019,0-OPEN,0,2464.580153,6372.802408,15433.29664,0.286211095,0.352218315,0.378690544
1752251577,1424,52332,49820,1-CLOSE,1,1369.213547,52003.46867,49441.89137,0.159547186,0.53248477,0.523319567
1752251577,3472,37593,37033,1-CLOSE,1,3467.66011,37448.97882,36834.19876,0.350257487,0.523183233,0.511082012
1752251577,4225,33672,34072,1-CLOSE,1,4271.123995,33727.42754,34072.78689,0.305903612,0.377179728,0.389619939
1752251577,1648,17716,19812,1-CLOSE,1,1739.676638,17964.23181,20010.99773,0.253803892,0.365734156,0.373392761
1752251577,1296,37849,37865,1-CLOSE,1,1423.75139,38263.20372,38239.97098,0.203963838,0.427993278,0.435701623
1752251577,4321,21765,24037,1-CLOSE,1,4471.880978,22301.68301,24547.87871,0.356775343,0.42703312,0.435622383
1752251577,4000,38521,38393,1-CLOSE,1,4159.06141,39124.45458,38986.05007,0.33431837,0.445266249,0.449975238
1752251577,1264,19428,21397,1-CLOSE,1,1415.610936,20035.88599,22010.24526,0.225256302,0.429017421,0.432873052
1752251578,3248,40217,39609,1-CLOSE,1,3377.287397,40766.78857,40178.68753,0.308572241,0.470555167,0.469468379
1752251578,3376,23909,26086,1-CLOSE,1,3470.447808,24344.57074,26553.39937,0.323031436,0.490055502,0.495316682
1752251578,2768,38473,37561,1-CLOSE,1,2818.666802,38750.25951,37878.34674,0.287611866,0.463385395,0.457623213
1752251578,2320,16355,18788,1-CLOSE,1,2322.276712,16446.00601,18923.03435,0.29133548,0.437112351,0.442283736
1752251578,3536,36985,38057,1-CLOSE,1,3490.060448,36880.77907,37996.30803,0.316692207,0.457352955,0.468359414
1752251578,4145,24181,24790,1-CLOSE,1,4055.824078,23892.85301,24540.70905,0.383743672,0.518926872,0.507841785
1752251578,4593,47915,47291,1-CLOSE,1,4469.84738,47473.63004,46880.2052,0.358939123,0.563047817,0.559132776
1752251578,1280,22277,24758,1-CLOSE,1,1135.324205,21728.99897,24229.68588,0.273362741,0.506317671,0.51184729
1752251578,4385,37513,37689,1-CLOSE,1,4233.157007,36915.37643,37098.85393,0.351232814,0.473188089,0.473889355
1752251578,1440,26054,27622,1-CLOSE,1,1295.908451,25468.43096,27031.6576,0.286480087,0.53913883,0.536777062
1752251578,2688,39897,39785,1-CLOSE,1,2565.636227,39383.83981,39255.96051,0.285435512,0.498820495,0.496683571
1752251578,1328,23333,24758,1-CLOSE,1,1239.03653,22944.9036,24345.09245,0.281786888,0.505980558,0.502007821
1752251578,1328,36568,36824,1-CLOSE,1,1280.703338,36344.38047,36569.58549,0.238919314,0.472307936,0.472658296
1752251578,1264,20853,22437,1-CLOSE,1,1262.466901,20816.04203,22366.65433,0.273967991,0.467755077,0.465353639
1752251578,1168,38057,37513,1-CLOSE,1,1211.841959,38209.59386,37633.04718,0.246617494,0.490418442,0.4835306
1752251578,1376,21909,24277,1-CLOSE,1,1460.43879,22234.62708,24574.06297,0.270543265,0.454526079,0.460477148
1752251578,1104,37081,37689,1-CLOSE,1,1220.385154,37545.43525,38131.45375,0.259084537,0.487234621,0.49098636
1752251578,2000,27286,28406,1-CLOSE,1,2136.706384,27841.007,28947.37587,0.288072241,0.474551203,0.471052131
1752251578,1056,38057,38345,1-CLOSE,1,1199.587717,38645.37262,38928.85171,0.270771499,0.502385949,0.503646617
1752251578,2624,22485,24549,1-CLOSE,1,2760.534237,23046.15867,25114.54201,0.306577712,0.398220031,0.403950664
1752251579,2880,37545,36840,1-CLOSE,1,2996.453092,38021.16669,37328.34757,0.359241444,0.502949036,0.495377953
1752251579,2704,49548,48715,1-CLOSE,1,2789.47735,49891.0001,49076.0404,0.304220446,0.6116733,0.596902289
1752251579,1552,35976,35272,1-CLOSE,1,1598.669533,36152.097,35469.51688,0.30920485,0.490836108,0.483640643
1752251579,1456,48907,48347,1-CLOSE,1,1459.769201,48899.45045,48361.62768,0.24857438,0.575891485,0.564989225
1752251579,1344,44586,44138,1-CLOSE,1,1304.900207,44396.92139,43969.40616,0.302084594,0.566923319,0.564446922
1752251579,4241,47467,47499,1-CLOSE,1,4163.254726,47117.00689,47165.79739,0.368975871,0.53816042,0.533948103
1752251579,1696,39065,38233,1-CLOSE,1,1587.588534,38590.59469,37770.31502,0.313607992,0.509822148,0.503506784
1752251579,2720,49852,49708,1-CLOSE,1,2591.72301,49301.8887,49163.87609,0.31019494,0.541283539,0.537366106
1752251579,1376,43114,42042,1-CLOSE,1,1240.386558,42544.37071,41472.69687,0.291424884,0.536798923,0.529597945
1752251579,1664,46907,46971,1-CLOSE,1,1534.097936,46375.65329,46435.06355,0.275289061,0.501185224,0.500204454
1752251579,1408,43098,42122,1-CLOSE,1,1296.131955,42658.38602,41674.15956,0.280233954,0.526096253,0.520167439
1752251579,1536,42938,43274,1-CLOSE,1,1452.622438,42633.82327,42959.56855,0.282687904,0.455691534,0.458056844
1752251579,1552,42122,41978,1-CLOSE,1,1504.732201,41982.85387,41828.29292,0.271772792,0.508378876,0.51019638
1752251579,1504,48955,48155,1-CLOSE,1,1496.934761,48993.76456,48184.45571,0.294714788,0.503861234,0.498195114
1752251579,2384,40153,39673,1-CLOSE,1,2417.374592,40364.62794,39877.73004,0.293284771,0.48497915,0.483442299
1752251579,2016,50508,49868,1-CLOSE,1,2086.232352,50870.01038,50226.1808,0.327745576,0.513632386,0.510839945
1752251579,3552,43946,42890,1-CLOSE,1,3652.079017,44421.00723,43364.33273,0.33263479,0.518005548,0.512012023
1752251579,2544,49548,48075,1-CLOSE,1,2664.184882,50087.4913,48616.48057,0.356645792,0.502949573,0.492895621
1752251579,4673,39257,38921,1-CLOSE,1,4801.765967,39806.0438,39473.76552,0.375826129,0.477564902,0.47773486
1752251580,1888,54733,54077,1-CLOSE,1,2013.10925,55235.99335,54584.28466,0.328491921,0.551103603,0.549769079
1752251580,5921,48587,47339,1-CLOSE,1,6030.665909,48993.67175,47749.28535,0.431343129,0.567996346,0.561851217
1752251580,1760,50044,49740,1-CLOSE,1,1844.009068,50314.15687,50011.95122,0.315999798,0.512501301,0.513379721
1752251580,1216,39881,39561,1-CLOSE,1,1266.496282,39987.99993,39667.17842,0.2393298,0.496996375,0.498271538
1752251580,2416,50444,49516,1-CLOSE,1,2428.238781,50377.51603,49445.73891,0.331414788,0.52312084,0.517911826
1752251580,1552,42826,42026,1-CLOSE,1,1524.930543,42593.33508,41786.75523,0.266448186,0.534759065,0.532278604
1752251580,1296,50716,50956,1-CLOSE,1,1232.305174,50341.2916,50572.60989,0.268095059,0.534586048,0.539975026
1752251580,1168,40425,39753,1-CLOSE,1,1073.810968,39946.57997,39264.98789,0.26407101,0.526755914,0.52475934
1752251580,1424,47755,46907,1-CLOSE,1,1308.341085,47221.39606,46364.36389,0.257952762,0.517270252,0.51196466
1752251580,2832,37577,37209,1-CLOSE,1,2705.981578,37042.01236,36667.09823,0.347134741,0.517983756,0.517484939
1752251580,3616,54253,54221,1-CLOSE,1,3491.809384,53770.5467,53735.23044,0.338530157,0.585213409,0.589002379
1752251580,1120,41402,41610,1-CLOSE,1,1009.631718,41020.87604,41230.34336,0.281771536,0.573496231,0.577700539
1752251580,3008,54765,54413,1-CLOSE,1,2922.02207,54523.78845,54178.69954,0.304466171,0.596533293,0.598127171
1752251583,5217,55325,54381,2-PINCH,2,5124.893437,55245.98641,54364.14956,0.400641144,0.622188745,0.616898434
1752251583,4753,51468,50796,2-PINCH,2,4686.015833,51524.34035,50936.4291,0.376337467,0.49379338,0.491645961
1752251583,2080,38105,36712,2-PINCH,2,2044.599241,38290.96106,36996.21415,0.281212023,0.471681414,0.458895175
1752251583,3232,60270,57694,2-PINCH,2,3231.442709,60566.51845,58093.44746,0.290576598,0.567027321,0.550163879
1752251583,896,41402,41658,2-PINCH,2,930.1001516,41779.19315,42132.55517,0.248411777,0.508613305,0.511488994
1752251584,4545,56861,55773,2-PINCH,2,4610.24492,57280.83687,56274.74541,0.325034004,0.533541524,0.531022229
1752251584,1488,45787,44826,2-PINCH,2,1577.95963,46207.15834,45304.00633,0.290738764,0.55558081,0.547672273
1752251584,3008,58094,56989,2-PINCH,2,3113.881743,58472.25182,57394.56964,0.24169866,0.547363561,0.545746598
1752251584,3072,40841,40457,2-PINCH,2,3183.534358,41139.19244,40748.40869,0.371059265,0.51762214,0.513918034
1752251584,6785,54989,54557,2-PINCH,2,6891.581122,55176.77734,54703.67482,0.392113601,0.526540814,0.531058709
1752251584,1232,42650,43210,2-PINCH,2,1323.598317,42708.07121,43195.90447,0.298697395,0.541728939,0.546932364
1752251584,8530,58878,56701,2-PINCH,2,8598.047721,58800.30587,56526.49196,0.46471,0.573233138,0.562343539
1752251584,3344,42058,42122,2-PINCH,2,3382.298215,41852.27645,41803.79134,0.387659326,0.545549707,0.545840491
1752251584,4689,50220,49356,2-PINCH,2,4694.126425,49906.6649,48925.29865,0.307590288,0.507954232,0.507477839
1752251584,2768,43802,42906,2-PINCH,2,2739.53794,43412.19331,42405.50393,0.356084135,0.573303855,0.564690519
1752251584,1168,56621,55821,2-PINCH,2,1108.579537,56193.9059,55301.04817,0.17064556,0.580453788,0.581415118
1752251584,1264,40393,40249,2-PINCH,2,1179.030647,39971.77366,39762.42403,0.281346532,0.557454621,0.554667643
1752251584,6065,56445,55261,2-PINCH,2,5962.412394,56072.23554,54857.57628,0.396510403,0.592584477,0.589590927
1752251584,1616,40905,40841,2-PINCH,2,1505.559189,40618.53988,40562.46145,0.284688608,0.580456124,0.577693295
1752251584,1856,34328,33704,2-PINCH,2,1748.128069,34156.50072,33579.1602,0.235346686,0.404048817,0.401860991
1752251584,1280,19940,20789,2-PINCH,2,1184.776179,19899.48093,20830.21823,0.259820269,0.409994984,0.410805293
1752251584,2624,42266,41626,2-PINCH,2,2550.358562,42359.17626,41828.76738,0.285431459,0.488563432,0.48733854
1752251584,1088,21813,22325,2-PINCH,2,1042.898488,22029.76555,22669.01864,0.243856413,0.447887595,0.444752332
1752251584,1040,37305,36953,2-PINCH,2,1027.699005,37623.15865,37403.86642,0.23258094,0.455628041,0.455686816
1752251584,1040,20084,21029,2-PINCH,2,1061.665606,20471.43268,21541.56278,0.237820464,0.4516579,0.451144917
1752251585,4032,36728,36312,2-PINCH,2,4085.71895,37146.02105,36834.98484,0.371160884,0.462980555,0.461597026
1752251585,5489,19796,20837,2-PINCH,2,5570.06975,20203.25385,21318.16135,0.427618373,0.465996346,0.465492974
1752251585,1424,35880,35688,2-PINCH,2,1525.18059,36236.54027,36079.33312,0.267032276,0.467978566,0.467427913
1752251585,1568,13347,15027,2-PINCH,2,1679.924394,13618.0345,15289.36942,0.264037212,0.421273533,0.425049523
1752251585,1680,35976,35912,2-PINCH,2,1792.115929,36135.30797,36019.07063,0.281769472,0.480736914,0.479957029
1752251585,2848,27702,28807,2-PINCH,2,2949.704843,27735.03603,28748.41311,0.32431029,0.563320435,0.564279377
1752251585,2624,38153,38377,2-PINCH,2,2705.659947,38058.27066,38159.43562,0.324023058,0.510289334,0.510926211
1752251585,1168,18500,19076,2-PINCH,2,1221.779395,18288.39364,18721.7866,0.258532599,0.488837356,0.483317528
1752251585,1312,36889,36568,2-PINCH,2,1332.550215,36582.46961,36112.71306,0.269934082,0.505219186,0.498892548
1752251585,1680,19764,20388,2-PINCH,2,1665.050774,19393.58226,19877.19784,0.284624098,0.507971242,0.503318248
1752251585,2624,34456,34696,2-PINCH,2,2574.678688,34058.64748,34180.67028,0.328790637,0.485789934,0.482794776
1752251585,1600,18340,19156,2-PINCH,2,1520.737997,17954.82639,18687.40781,0.282948965,0.500650608,0.497587829
1752251585,1248,35480,36200,2-PINCH,2,1146.064561,35144.52898,35824.68735,0.274311571,0.494703172,0.495368773
1752251585,2128,18948,19988,2-PINCH,2,2012.848424,18694.56951,19743.22565,0.304901404,0.508770522,0.507730314
1752251585,2528,35944,36312,2-PINCH,2,2410.478701,35796.63383,36222.0072,0.3335215,0.496898319,0.493958444
1752251585,1664,18596,19204,2-PINCH,2,1555.298391,18568.10918,19277.57394,0.283451937,0.503484269,0.497940612
1752251585,1008,35816,36024,2-PINCH,2,918.5104042,35909.15448,36253.60021,0.272308704,0.49409605,0.489797873
1752251585,2512,17044,17908,2-PINCH,2,2450.361748,17247.85585,18270.51672,0.318370323,0.481045758,0.476997068
1752251585,1696,38825,38793,2-PINCH,2,1668.327013,39118.51676,39252.15984,0.302871015,0.522079582,0.516741468
1752251585,2688,17300,17988,2-PINCH,2,2697.256682,17653.65388,18498.02758,0.326107507,0.468015516,0.461761631
1752251586,1072,32856,32840,2-PINCH,2,1117.65039,33234.5021,33349.93595,0.274670193,0.471516255,0.466210646
1752251586,1536,21637,23301,2-PINCH,2,1613.987534,22002.92445,23759.92848,0.278630257,0.485519996,0.488661048
1752251586,1104,37689,37545,2-PINCH,2,1207.121814,38006.77634,37907.41733,0.272454888,0.522254638,0.517832438
1752251586,3184,26054,26838,2-PINCH,2,3302.645796,26293.3691,27068.27216,0.350681385,0.498923884,0.494524987
1752251586,2656,33400,33384,2-PINCH,2,2779.086036,33538.6398,33459.61929,0.334942878,0.491510682,0.48875736
1752251586,1552,37049,37257,2-PINCH,2,1667.911034,37074.77994,37170.97133,0.281077553,0.570178714,0.56266409
1752251586,2800,35880,36104,2-PINCH,2,2897.644016,35792.21171,35865.67366,0.339377259,0.521985752,0.523174807
1752251586,1504,34312,34888,2-PINCH,2,1573.91133,34120.87242,34521.71584,0.275612048,0.517478437,0.513553856
1752251586,2496,33992,32984,2-PINCH,2,2531.24355,33717.41929,32526.44841,0.327944319,0.510316708,0.500865932
1752251586,2240,34632,35048,2-PINCH,2,2236.879833,34301.53367,34544.62181,0.29984738,0.496503482,0.492343329
1752251586,1344,30439,30343,2-PINCH,2,1302.421561,30085.08821,29843.49258,0.283272337,0.4796701,0.478984776
1752251586,3040,34360,34504,2-PINCH,2,2963.520269,34016.75831,34057.39709,0.32442268,0.476141289,0.471142155
1752251586,1664,37705,37705,2-PINCH,2,1559.570269,37405.23186,37355.1379,0.302391948,0.543019548,0.545224089
1752251586,1184,31623,32984,2-PINCH,2,1061.265733,31394.99953,32765.19277,0.235982719,0.440558084,0.448612493
1752251586,1376,40473,39449,2-PINCH,2,1246.397498,40337.76474,39382.52364,0.293843131,0.561071964,0.554624187
1752251589,4689,62255,44698,3-POINT,3,4527.964141,62110.16443,44682.33892,0.362993235,0.744490436,0.561116634
1752251589,6017,36360,40441,3-POINT,3,5852.291948,36298.68565,40591.96706,0.446325284,0.486862063,0.526080076
1752251589,6625,61711,43306,3-POINT,3,6472.763933,61741.09435,43608.80849,0.438066882,0.666835082,0.522105107
1752251590,4689,39289,41354,3-POINT,3,4564.215214,39408.98506,41778.42879,0.391004197,0.531866116,0.528292378
1752251590,4353,61759,43114,3-POINT,3,4267.89329,61957.97722,43617.43825,0.336178401,0.606379384,0.501887916
1752251590,1408,40473,41098,3-POINT,3,1370.795405,40731.62523,41629.68583,0.250331547,0.551181722,0.515376628
1752251590,3728,61743,42506,3-POINT,3,3742.170268,62035.36015,43012.11765,0.308280006,0.560335705,0.484704306
1752251590,3008,42970,41498,3-POINT,3,3072.077395,43266.24128,41927.13323,0.314846215,0.573115722,0.50613501
1752251590,2192,61743,43066,3-POINT,3,2299.702738,62012.36843,43374.37504,0.245990308,0.528442044,0.483679366
1752251590,3552,60350,41386,3-POINT,3,3692.81845,60564.42842,41541.9247,0.331275688,0.724897314,0.491979226
1752251590,5985,61791,44634,3-POINT,3,6145.367188,61928.02017,44621.13777,0.415132182,0.507579521,0.495462993
1752251590,2976,26390,41482,3-POINT,3,3140.566204,26433.6767,41301.07799,0.29770995,0.40822716,0.481822237
1752251590,816,61743,43514,3-POINT,3,968.8538587,61685.73348,43182.71639,0.205086724,0.492840673,0.483888295
1752251590,928,40649,41274,3-POINT,3,1054.164632,40493.91653,40825.28627,0.200843627,0.533246408,0.472917399
1752251590,1424,61727,44490,3-POINT,3,1511.057246,61487.88976,43968.8091,0.242240101,0.483136351,0.491672673
1752251590,2960,41594,39897,3-POINT,3,2999.423219,41293.73975,39355.77803,0.279681044,0.541353889,0.458983088
1752251590,1600,61695,43466,3-POINT,3,1587.976433,61363.36756,42959.36334,0.259396051,0.47746716,0.479208297
1752251590,2304,22245,40729,3-POINT,3,2241.725358,21915.16836,40308.2952,0.247933541,0.368873321,0.472796223
1752251590,2096,61743,43626,3-POINT,3,1989.568486,61448.22629,43334.1439,0.28641671,0.477210224,0.474852893
1752251590,2096,27366,41162,3-POINT,3,1955.820862,27136.94948,41029.10254,0.241001238,0.422414586,0.490904464
1752251590,1680,61807,44794,3-POINT,3,1519.755594,61668.57078,44834.29685,0.269442102,0.482298811,0.476439566
1752251590,6801,35352,39529,3-POINT,3,6636.44648,35320.72459,39739.28386,0.449774957,0.504480682,0.497595985
1752251590,4241,61743,42826,3-POINT,3,4088.50142,61825.13333,43185.77606,0.374306695,0.491128293,0.445972866
1752251591,5425,37945,39465,3-POINT,3,5299.736413,38135.44733,39938.52421,0.404508679,0.5398479,0.525170909
1752251591,5697,61743,51676,3-POINT,3,5611.428149,62025.52857,52216.12229,0.428391036,0.504158844,0.514663601
1752251591,720,35272,36232,3-POINT,3,682.5249311,35620.44602,36784.76583,0.22027458,0.53029266,0.52708003
1752251591,2112,61743,59934,3-POINT,3,2126.012201,62123.68087,60444.0159,0.266311256,0.518901943,0.578805876
1752251591,2848,24966,26758,3-POINT,3,2911.758417,25340.75686,27173.80461,0.327428874,0.455050004,0.471806075
1752251591,1696,61711,60718,3-POINT,3,1802.925322,62041.01566,60997.04156,0.2408466,0.53313985,0.576681523
1752251591,1264,36472,35768,3-POINT,3,1403.249323,36722.40132,35881.48489,0.273506571,0.582620834,0.586396702
1752251591,3264,61743,60702,3-POINT,3,3421.618274,61886.52101,60637.83106,0.303707461,0.546363317,0.571731982
1752251591,2144,31303,32936,3-POINT,3,2304.383862,31322.46049,32699.73146,0.319795744,0.562144264,0.587394955
1752251591,3936,61759,59630,3-POINT,3,4083.415994,61649.29146,59244.33664,0.333302244,0.557414207,0.562052874
1752251591,1056,34072,35064,3-POINT,3,1176.072363,33841.1164,34566.75442,0.276515583,0.616230505,0.629953007
1752251591,3216,61775,61022,3-POINT,3,3297.07284,61443.52482,60462.45688,0.308318074,0.567078467,0.580104078
1752251591,816,28022,30183,3-POINT,3,850.2907034,27621.04924,29616.84511,0.264401367,0.589904125,0.602481091
1752251591,1760,61743,54221,3-POINT,3,1744.325022,61311.30867,53704.56115,0.255173836,0.576304007,0.5263083
1752251591,1568,2704,2768,3-POINT,3,1504.096409,2283.656515,2352.032537,0.291526253,0.385325091,0.360646545
1752251591,2016,41306,36808,3-POINT,3,1910.382721,40937.78784,36532.41319,0.275751643,0.401153465,0.377391666
1752251591,2464,2704,3792,3-POINT,3,2327.303325,2424.139558,3682.813549,0.324287866,0.406304689,0.378163769
1752251591,3184,39177,37177,3-POINT,3,3029.933819,39014.09153,37244.381,0.333315674,0.394800382,0.395978996
1752251591,1040,2752,8274,3-POINT,3,883.9134295,2724.110407,8511.4146,0.259895912,0.421823742,0.423733249
1752251591,3312,42970,40793,3-POINT,3,3169.325795,43082.85105,41177.93525,0.342807901,0.444042958,0.445529502
1752251592,4721,3392,12931,3-POINT,3,4605.870434,3638.132237,13427.0988,0.416083939,0.437271282,0.468143026
1752251592,1568,39097,37513,3-POINT,3,1491.797408,39455.94078,38073.29755,0.268452622,0.423774546,0.430043898
1752251592,1312,2752,6881,3-POINT,3,1282.0384,3191.875827,7452.066112,0.272328944,0.437041115,0.411894414
1752251592,864,39641,38857,3-POINT,3,882.8526563,40121.45487,39384.15173,0.235916386,0.44223068,0.454844542
1752251592,944,2816,11154,3-POINT,3,1009.366386,3291.896211,11586.81244,0.258451265,0.440951545,0.451810236
1752251592,1712,39545,38793,3-POINT,3,1817.017844,39970.62891,39090.08304,0.269910963,0.451939278,0.462760818
1752251592,1200,5185,13363,3-POINT,3,1333.97878,5518.52891,13495.8933,0.268404416,0.464867353,0.473712017
1752251592,1744,40521,39657,3-POINT,3,1893.484092,40728.60852,39612.92054,0.272574022,0.468131918,0.475368156
1752251592,1088,6273,14915,3-POINT,3,1238.107642,6332.266621,14698.05194,0.257467845,0.476285354,0.490488414
1752251592,3056,48427,46059,3-POINT,3,3191.937921,48329.48999,45689.94582,0.335105612,0.545358935,0.536762972
1752251592,1040,18596,23557,3-POINT,3,1148.521419,18348.65593,23071.47112,0.24362247,0.587790334,0.572535662
1752251592,3600,37705,37145,3-POINT,3,3670.67299,37329.20695,36589.64121,0.369558136,0.45379469,0.456015545
1752251592,3680,8658,15299,3-POINT,3,3706.282527,8187.160883,14726.53151,0.341009093,0.491593693,0.494120627
1752251592,1456,36744,37225,3-POINT,3,1435.769111,36220.86815,36689.46984,0.290839608,0.456000205,0.46283582
1752251592,3552,11410,17332,3-POINT,3,3487.639486,10883.17319,16883.97606,0.321418821,0.502436205,0.504261224
1752251592,1712,40233,40329,3-POINT,3,1610.193616,39752.54606,40010.88982,0.311209626,0.507725816,0.505731018
1752251592,1904,13027,18356,3-POINT,3,1774.998694,12639.67706,18198.0183,0.2429795,0.491639993,0.495037381
1752251595,912,46315,44538,4-FOUR,4,806.9371452,45816.10618,44420.46261,0.262882641,0.670760046,0.639206818
1752251596,2208,38057,38521,4-FOUR,4,2098.149095,37800.25814,38627.87982,0.289791258,0.45584605,0.465771935
1752251596,1328,12258,17684,4-FOUR,4,1224.296832,12270.8441,18005.21873,0.288347843,0.394474763,0.415598431
1752251596,2800,39465,39769,4-FOUR,4,2712.710634,39747.15815,40272.20946,0.30800787,0.465401208,0.474143191
1752251596,1008,15235,19652,4-FOUR,4,945.6855439,15759.43991,20286.62395,0.28280596,0.454608687,0.458817457
1752251596,1328,44234,43626,4-FOUR,4,1296.621281,44949.60685,44328.38009,0.238949109,0.509057245,0.508311994
1752251596,1504,14595,19796,4-FOUR,4,1506.37069,15431.45364,20495.72071,0.310110947,0.477440037,0.48169257
1752251596,6081,41098,40553,4-FOUR,4,6116.707409,41972.46071,41179.74655,0.43826995,0.485894935,0.480620836
1752251596,1056,6065,11442,4-FOUR,4,1121.437231,6890.086406,11932.379,0.293186899,0.422024471,0.420876024
1752251596,1264,42218,42330,4-FOUR,4,1352.467176,42910.62443,42634.07103,0.234014209,0.506339129,0.500148438
1752251596,1216,12307,16852,4-FOUR,4,1318.404868,12797.12515,16938.72594,0.297195196,0.494850236,0.483251286
1752251596,2128,37609,37705,4-FOUR,4,2233.945063,37846.54924,37565.23087,0.276788484,0.477103904,0.460867856
1752251596,1136,16083,20404,4-FOUR,4,1234.829152,16042.89177,20051.38138,0.28629317,0.54095937,0.524777345
1752251596,2576,42538,42058,4-FOUR,4,2657.857023,42223.04082,41527.88843,0.305633232,0.533612956,0.503812483
1752251596,1376,14771,19908,4-FOUR,4,1432.818902,14211.58013,19253.81264,0.285867832,0.539143731,0.526141129
1752251596,3456,37449,38009,4-FOUR,4,3482.31077,36699.89029,37296.61174,0.354736514,0.494465984,0.466516446
1752251596,3456,12403,17540,4-FOUR,4,3449.50492,11537.96639,16841.07093,0.362980546,0.527970057,0.507526958
1752251596,1120,42890,42586,4-FOUR,4,1081.682956,41994.83653,41971.0164,0.26614954,0.54507763,0.507732888
1752251596,1216,12563,19924,4-FOUR,4,1149.87776,11727.09968,19455.30981,0.25733953,0.539976592,0.528964964
1752251596,1504,33880,35000,4-FOUR,4,1416.777987,33187.04467,34725.1726,0.290801211,0.458786561,0.436513144
1752251596,3680,2800,8274,4-FOUR,4,3580.522806,2319.323985,8220.624621,0.355572439,0.459413637,0.413476831
1752251597,1856,28406,30599,4-FOUR,4,1754.355659,28185.76042,30772.00808,0.309953235,0.402503597,0.39822801
1752251597,1136,2720,2848,4-FOUR,4,1042.361969,2782.625237,3229.382353,0.244449573,0.460762896,0.347051825
1752251597,848,34568,35384,4-FOUR,4,771.5732005,34908.23055,35934.92474,0.266659228,0.454371066,0.450587144
1752251597,1232,2752,2912,4-FOUR,4,1180.189328,3337.320586,3576.906807,0.24987201,0.452681658,0.322436879
1752251597,1904,46715,44618,4-FOUR,4,1881.750332,47488.90576,45330.31456,0.307632513,0.566818845,0.549425401
1752251597,4577,2720,38841,4-FOUR,4,4586.414162,3607.442439,39530.77266,0.396677313,0.431062468,0.623942851
1752251597,1616,44986,41018,4-FOUR,4,1656.103661,45900.27558,41618.41543,0.28903393,0.560618929,0.531597556
1752251597,1072,2816,38105,4-FOUR,4,1138.654306,3667.215322,38557.8362,0.252552111,0.398247969,0.582195636
1752251597,1792,14275,39689,4-FOUR,4,1878.339865,14978.10594,39950.3296,0.289756984,0.296678513,0.533340264
1752251597,1440,10034,45403,4-FOUR,4,1537.244889,10517.47202,45447.66664,0.272948554,0.421762965,0.617439341
1752251597,2336,27302,40329,4-FOUR,4,2434.354787,27516.29528,40153.09056,0.307288249,0.432966986,0.548028941
1752251597,2784,31639,41226,4-FOUR,4,2873.66652,31562.01318,40846.86766,0.333049028,0.573572378,0.552386141
1752251597,4465,42490,39353,4-FOUR,4,4537.195262,42129.39441,38807.51005,0.394367012,0.585879254,0.540293937
1752251597,2352,41834,40713,4-FOUR,4,2399.766864,41226.13302,40054.04975,0.315093969,0.62457204,0.52935208
1752251597,1472,40986,40793,4-FOUR,4,1490.736264,40191.80676,40084.46158,0.264899473,0.579749017,0.547843955
1752251597,1904,40986,41178,4-FOUR,4,1891.900767,40084.59213,40488.56348,0.294599554,0.582128311,0.522745382
1752251597,1712,40137,39737,4-FOUR,4,1670.319945,39217.81388,39133.4537,0.274277164,0.570784146,0.527213497
1752251597,1456,39849,40073,4-FOUR,4,1388.923805,39002.92626,39613.72525,0.273207807,0.545646266,0.506675968
1752251597,2496,39833,40329,4-FOUR,4,2410.237837,39143.42168,40058.37614,0.306762485,0.558714792,0.519948509
1752251597,4785,41642,40121,4-FOUR,4,4689.22084,41176.66453,40065.15312,0.412839329,0.543613371,0.503738134
1752251598,3936,41194,41578,4-FOUR,4,3839.975127,40998.41637,41742.30202,0.366379816,0.556280257,0.51968551
1752251598,2064,42218,39705,4-FOUR,4,1977.442963,42310.95954,40073.53996,0.294833175,0.536033518,0.496714802
1752251598,2656,40986,40553,4-FOUR,4,2587.511515,41357.73061,41090.06065,0.309018644,0.537302628,0.501037418
1752251598,3744,41450,40809,4-FOUR,4,3700.335113,42063.15062,41462.55685,0.364609956,0.519192667,0.502903086
1752251598,3248,41562,40361,4-FOUR,4,3233.453918,42355.40864,41067.7776,0.330764265,0.526147703,0.493406965
1752251598,1360,39945,40761,4-FOUR,4,1375.87463,40839.76576,41452.55897,0.260801023,0.496637978,0.497472861
1752251598,1456,39625,40745,4-FOUR,4,1500.423225,40532.25018,41354.37191,0.250419508,0.494704649,0.493838533
1752251598,1056,41450,41770,4-FOUR,4,1124.196912,42279.78854,42238.19344,0.245263624,0.501559592,0.501713414
1752251598,3344,41370,39721,4-FOUR,4,3428.902428,42040.31475,40002.66571,0.32632687,0.500030255,0.482715567
1752251598,1312,41274,40825,4-FOUR,4,1404.991419,41718.8128,40892.7645,0.25377356,0.491375863,0.488681165
1752251598,2576,39625,39881,4-FOUR,4,2667.715159,39800.66767,39728.15527,0.287395468,0.476432014,0.482867709
1752251598,2592,42026,40841,4-FOUR,4,2673.294437,41915.56717,40482.19301,0.30738667,0.49067235,0.48625407
1752251598,1072,40233,40297,4-FOUR,4,1134.840332,39847.898,39766.83839,0.214162325,0.476167318,0.484794227
1752251598,1360,42634,41194,4-FOUR,4,1398.187966,42012.86432,40543.72775,0.256747095,0.490705853,0.488927844
1752251598,1552,41130,40585,4-FOUR,4,1561.837525,40334.80855,39877.54712,0.221588851,0.479480916,0.484605926
1752251598,1328,41162,40729,4-FOUR,4,1308.679775,40271.84065,40032.8776,0.260917681,0.474599061,0.48571811
1752251598,4641,41946,42538,4-FOUR,4,4594.740712,41049.2129,41920.71928,0.336333803,0.482416951,0.499151056
1752251598,1824,40553,39737,4-FOUR,4,1755.81181,39738.44536,39258.51825,0.290855952,0.469370619,0.478683725
1752251601,896,62287,61679,5-FIVE,5,826.1533073,61803.96774,61362.52176,0.278874503,0.741404103,0.735140968
1752251602,1312,44394,38409,5-FIVE,5,1250.305778,44151.61151,38327.12402,0.253183402,0.639227463,0.574198602
1752251602,880,21349,26374,5-FIVE,5,832.9958887,21371.79587,26535.05671,0.270312924,0.419419989,0.446569016
1752251602,1584,45595,41322,5-FIVE,5,1556.715911,45879.20435,41708.73991,0.268106079,0.59084462,0.56026323
1752251602,1088,19060,23541,5-FIVE,5,1083.430458,19575.10049,24113.31595,0.269738234,0.445926925,0.456973606
1752251602,2448,40281,37881,5-FIVE,5,2466.795873,40972.81627,38579.8949,0.308047749,0.492760921,0.493197424
1752251602,1920,20693,24085,5-FIVE,5,1960.402042,21489.45693,24838.73936,0.295909382,0.4980084,0.491446349
1752251602,1744,52844,48011,5-FIVE,5,1801.959984,53663.09163,48742.82336,0.2796406,0.572684478,0.562191637
1752251602,1376,20709,24517,5-FIVE,5,1445.547974,21467.15957,25152.91514,0.264922477,0.521728816,0.515072047
1752251602,768,46907,44538,5-FIVE,5,841.8495844,47527.09555,45013.87561,0.237342489,0.501152618,0.516341923
1752251602,2048,22533,26758,5-FIVE,5,2118.341036,22952.21158,27026.07038,0.288149742,0.548458022,0.545706953
1752251602,2560,44890,41642,5-FIVE,5,2619.395013,45066.27724,41675.6673,0.310572753,0.480503694,0.486408772
1752251602,2528,21413,25558,5-FIVE,5,2570.160208,21329.19245,25354.37559,0.305777907,0.537834133,0.536513003
1752251602,5457,45723,42714,5-FIVE,5,5477.477002,45388.60198,42294.25586,0.42883494,0.497056406,0.501381731
1752251602,5921,23381,26694,5-FIVE,5,5917.732074,22831.18057,26101.24122,0.44982209,0.548784876,0.543892518
1752251602,2880,47755,45339,5-FIVE,5,2853.369226,47046.95855,44633.89503,0.312524975,0.531324143,0.535884363
1752251602,2992,21141,24053,5-FIVE,5,2944.615485,20347.92714,23307.48601,0.325669192,0.518566756,0.51361823
1752251602,2880,46891,43338,5-FIVE,5,2816.513186,46094.46153,42627.83653,0.306138791,0.542182665,0.529928765
1752251602,1952,20420,24149,5-FIVE,5,1878.700353,19701.61789,23546.16378,0.28240378,0.50195484,0.508054065
1752251602,2080,45931,44218,5-FIVE,5,2004.170757,45364.11139,43783.48513,0.266824363,0.552323489,0.551295856
1752251603,1056,21013,24357,5-FIVE,5,985.1993742,20655.22696,24134.66278,0.244793677,0.498563299,0.503908681
1752251603,5329,25206,26710,5-FIVE,5,5270.419886,25092.86478,26721.63703,0.401996881,0.380816947,0.401057793
1752251603,2272,14979,18820,5-FIVE,5,2231.79506,15120.2209,19063.05618,0.296494886,0.436661362,0.447264716
1752251603,2400,38393,37881,5-FIVE,5,2382.475326,38772.60365,38329.74329,0.275513871,0.515265973,0.51549075
1752251603,4241,20549,24165,5-FIVE,5,4248.174631,21127.41181,24773.52574,0.379905886,0.482224899,0.492657854
1752251603,1760,33064,33416,5-FIVE,5,1791.442538,33781.64265,34122.48445,0.247815179,0.477623821,0.482296743
1752251603,1184,23861,26422,5-FIVE,5,1236.706475,24644.34659,27154.88174,0.249142908,0.508719466,0.510204739
1752251603,3360,35320,35496,5-FIVE,5,3428.741785,36089.29243,36181.39217,0.316270404,0.505092246,0.506988628
1752251603,3104,21429,22997,5-FIVE,5,3181.978308,22106.19165,23565.96936,0.330861392,0.484002777,0.475644647
1752251603,2608,35512,34872,5-FIVE,5,2687.453023,36028.599,35267.4134,0.285079212,0.50948628,0.503186194
1752251603,2544,21669,23797,5-FIVE,5,2616.906468,21973.05535,23979.36756,0.306548124,0.484303279,0.480846625
1752251603,3536,35480,34904,5-FIVE,5,3594.933432,35541.31055,34855.43111,0.326761524,0.507382961,0.501742312
1752251603,2560,31383,33096,5-FIVE,5,2598.899035,31196.37014,32822.18955,0.305486477,0.571089377,0.565284511
1752251603,1824,37321,36937,5-FIVE,5,1838.717331,36906.72017,36466.63431,0.257889461,0.518009693,0.515074071
1752251603,1440,22773,24982,5-FIVE,5,1428.709998,22174.16237,24363.29006,0.253795248,0.490574139,0.487792162
1752251603,1920,36328,35928,5-FIVE,5,1883.46448,35605.95863,35223.67172,0.268373346,0.49912382,0.496740513
1752251603,2064,26566,28342,5-FIVE,5,2005.575153,25794.4439,27623.26382,0.274278923,0.521537108,0.515867289
1752251603,3664,37225,35736,5-FIVE,5,3589.374961,36482.50493,35075.3885,0.350454554,0.494849456,0.483521851
1752251603,2704,25318,26966,5-FIVE,5,2620.643926,24679.90851,26429.93266,0.294660133,0.50396718,0.49783208
1752251603,5265,35528,35400,5-FIVE,5,5181.411732,35058.72276,35042.11304,0.42540653,0.465728082,0.467749139
1752251604,3856,15171,17972,5-FIVE,5,3780.857862,14917.28286,17827.57919,0.338797002,0.401723999,0.405879684
1752251604,1232,40201,39497,5-FIVE,5,1173.110201,40187.44855,39579.62717,0.255828953,0.494571736,0.493101951
1752251604,4625,26086,27862,5-FIVE,5,4588.478716,26313.27364,28162.79708,0.371632895,0.4872103,0.485672513
1752251604,960,36985,35944,5-FIVE,5,949.7440286,37429.59644,36432.36471,0.239407592,0.45215392,0.447981013
